,PNW,APD,HES,AFL,AMGN,ADI,APA,AMAT,ADSK,AVY,BLL,BK,VZ,BBY,HRB,CAH,CTL,CMA,C,CMS,DHR,DOV,OMC,PKI,ECL,EFX,FITB,RF,USB,BEN,GPS,HAS,HD,CNP,HBAN,ITW,IPG,JCI,KLAC,LMT,L,LOW,MRO,MMC,MCK,MDT,MU,NWL,NKE,JWN,NTRS,NOC,NUE,PNC,PH,PAYX,PPL,PHM,SEE,KEY,LUV,T,STT,SYY,TMO,AEE,UNH,VMC,TJX,TFC,MS,MSFT,ORCL,ADBE,UNM,PGR,CCL,VIAC,SCHW,WM,FCX,CINF,CSCO,AZO,AES,QCOM,LIN,BSX,KSS,AGN,HUM,ALL,MAR,COST,EMN,COF,DRI,NTAP,HIG,YUM,RHI,STZ,CTAS,CMCSA,FLS,EXPD,MTB,J,LEG,LEN,HST,MKC,MYL,NBL,NI,SJM,PSA,SYK,TSN,UPS,VAR,VNO,WEC,ZION,TROW,HOG,FISV,TIF,XRAY,FAST,APH,PXD,DVN,LH,VLO,NLOK,PBCT,EOG,EA,COG,XLNX,BIIB,KIM,GILD,DHI,SBUX,INTU,MCHP,EQR,SPG,IVZ,AVB,PLD,AIV,ABC,DVA,EL,WAT,CTXS,TRV,ETFC,NOV,DGX,AMZN,RL,BXP,CHRW,VRSN,AMT,CTSH,EBAY,GS,NVDA,JNPR,AKAM,EXPE,A,MET,ISRG,MCO,TPR,MDLZ,PRU,ZBH,ANTM,PFG,CME,NDAQ,AIZ,CRM,MA,GOOGL,ICE,CF,AMP,FIS,WU,DFS,PM,CBRE,ABT,HON,AEP,BA,BMY,CPB,CAT,CVX,KO,CL,ED,GLW,DE,DTE,D,ETN,XOM,F,GD,GE,HAL,HSY,IBM,IP,K,KMB,KR,SPGI,CVS,MRK,ETR,MMM,MSI,NSC,XEL,FE,PPG,SRE,PEP,PFE,EXC,MO,COP,PG,PEG,AXP,AIG,AAPL,ADM,ADP,BAX,BDX,BF.B,CI,CSX,JPM,CLX,CAG,TAP,CMI,TGT,DIS,DUK,EMR,NEE,FDX,GIS,GPC,GWW,HPQ,INTC,IFF,JNJ,LLY,LB,LNC,MAS,MCD,BAC,NEM,WFC,OXY,PCAR,ROK,SLB,SHW,SNA,EIX,SO,SWK,TXN,TXT,UNP,VFC,WMT,WBA,WY,WHR,WMB,XRX,AMD,ALK,AON,DXC,COO,DD,ATO,AJG,LHX,HLT,HFC,TT,EVRG,RJF,ROL,AOS,TFX,GL,UDR,RTX,LNT,JKHY,COTY,IT,NVR,PEAK,CDNS,DRE,ABMD,MXIM,FRC,MGM,WRB,IEX,SIVB,TMUS,IQV,TWTR,PAYC,KEYS,ANET,HOLX,CFG,IDXX,ZBRA,ODFL,SNPS,STE,CDW,REG,INCY,MAA,ALB,CPRT,RMD,DISH,WAB,RE,ANSS,TTWO,ARE,MTD,NCLH,SBAC,CHTR,PKG,ALGN,GPN,CNC,TDG,LKQ,MKTX,DLR,LVS,CE,INFO,UAA,LDOS,LYV,FANG,NOW,IPGP,BR,CXO,MSCI,ULTA,AWK,FTNT,CBOE,FLT,HII,FBHS,AAL,SWKS,AME,BRK.B,CHD,DAL,DG,FMC,FRT,GM,WELL,KHC,HP,HRL,JBHT,KMI,KSU,LRCX,ES,OKE,PNR,PVH,ROST,UAL,UHS,WDC,CERN,ZTS,ABBV,NWSA,SYF,HCA,REGN,MNST,VRTX,PYPL,PRGO,ROP,MHK,HPE,CB,ORLY,RCL,FLIR,BWA,MLM,TSCO,WRK,ESS,O,DLTR,HSIC,ALXN,IRM,KMX,QRVO,SLG,URI,PWR,NLSN,VTR,RSG,CCI,APTV,BKNG,FFIV,BLK,EW,NRG,ILMN,EQIX,GRMN,ACN,ADS,WLTW,AAP,NFLX,WYNN,STX,EXR,MOS,DISCA,CMG,FB,PSX,HBI,TEL,V,ATVI,VRSK,AVGO,MPC,XYL,CPRI,LYB,ALLE
2016-01-04,64.31,128.21,48.4,58.79,159.0,54.24,44.25,18.31,60.01,61.68,71.61,40.29,45.67,29.84,32.73,87.73,24.85,40.61,50.75,35.83,91.06,60.12,74.39,52.79,112.9,109.92,19.48,9.35,41.75,35.64,24.12,66.34,130.11,18.26,10.76,91.29,22.89,38.87,68.03,214.0,37.75,74.69,12.56,54.48,193.59,75.83,13.83,43.31,61.11,49.3,70.29,185.98,39.64,94.0,95.2,52.0,33.9,17.57,43.7,12.99,41.7,34.08,64.77,40.53,139.45,43.13,116.91,93.5,69.89,36.92,30.7,54.32,36.01,91.77,32.36,31.4,54.16,46.33,31.95,52.6,6.6,58.11,26.39,733.0,9.44,49.43,101.03,18.16,46.91,306.5,177.67,60.88,65.93,159.81,66.5,70.77,62.88,26.16,42.67,71.32,46.4,141.03,89.82,55.15,41.4,44.35,119.24,41.35,41.27,48.15,15.08,84.45,52.88,32.64,19.41,121.6,243.92,91.47,52.44,95.34,79.73,98.9,50.93,26.56,69.93,44.69,90.09,75.2,59.21,40.24,51.07,125.19,31.78,121.86,70.38,20.55,15.85,70.8,67.18,17.67,46.12,300.34,26.17,99.77,31.6,58.77,94.19,45.66,80.79,192.31,32.59,182.35,42.36,39.47,102.31,68.81,86.93,132.56,74.4,110.71,28.88,33.51,70.2,656.29,109.99,125.28,61.09,85.69,96.29,58.81,27.11,175.79,32.29,27.19,51.8,121.26,41.06,47.12,547.16,98.44,32.35,44.09,79.55,101.12,137.66,43.81,88.8,56.9,78.94,77.14,95.37,762.2,252.25,40.06,103.93,59.52,17.56,52.53,86.85,33.84,43.94,101.62,57.82,141.38,67.45,51.93,66.88,89.53,42.34,65.4,63.85,17.95,75.78,79.5,66.97,51.21,77.5,13.87,135.62,30.55,33.86,88.16,135.6,37.16,71.59,125.91,41.16,96.56,96.17,52.01,67.91,148.05,67.67,83.64,35.61,31.52,97.27,93.16,98.56,31.85,27.48,57.54,46.41,78.36,38.28,68.09,60.66,102.61,36.11,82.93,37.66,150.62,97.52,144.71,25.37,63.95,125.35,41.69,92.97,86.75,71.84,103.12,70.93,47.32,102.87,146.41,56.84,84.81,199.55,11.58,33.88,118.31,101.71,83.4,94.6,49.17,27.83,117.25,16.45,18.44,53.09,67.09,46.5,100.71,69.45,257.31,168.79,58.57,46.42,104.94,53.55,41.34,76.87,60.69,60.5,83.7,29.51,144.4,25.52,10.41,2.77,79.16,90.71,31.86,132.46,50.27,63.02,40.4,86.4,21.2,39.66,54.4,42.11,56.56,25.65,75.47,129.86,56.02,37.52,94.45,62.52,76.82,25.22,89.73,1629.89,37.6,20.0,20.87,88.8,37.3,64.85,22.06,54.16,75.74,116.67,38.86,67.86,22.64,37.11,27.93,77.85,38.38,25.71,72.35,67.68,58.31,45.11,74.11,41.41,68.47,106.5,90.41,54.97,37.59,52.97,56.11,69.92,181.69,91.4,34.05,89.67,333.07,57.56,104.62,180.56,62.01,64.99,63.51,64.61,228.2,29.27,109.86,74.86,42.8,66.24,116.46,79.67,55.24,24.14,66.45,84.98,87.74,52.91,92.68,71.1,182.67,59.68,30.54,64.55,140.31,124.97,54.86,41.29,75.01,52.86,130.16,83.8,49.42,70.93,37.81,145.17,33.45,67.77,71.38,53.31,78.25,71.85,14.89,73.18,77.77,50.65,24.66,48.63,72.72,53.0,55.79,117.46,59.32,59.05,46.94,58.06,13.12,29.98,65.69,531.76,146.52,123.03,35.13,142.01,186.38,189.0,14.97,115.02,248.45,99.6,28.35,42.48,134.59,83.5,44.81,238.45,51.14,76.84,155.94,187.01,26.8,53.1,49.68,111.81,71.11,19.97,45.77,56.0,43.42,85.64,84.45,1256.0,95.6,333.04,78.1,11.57,187.65,299.75,36.6,102.62,271.16,48.02,149.25,109.0,67.03,36.03,87.73,27.31,26.13,468.7,101.95,81.21,28.92,63.47,76.06,38.05,75.36,142.07,51.68,35.92,39.39,86.28,64.88
2016-01-05,63.96,128.47,47.68,59.17,159.0,54.73,43.5,18.47,60.39,61.14,72.23,39.94,46.2,30.72,33.03,88.38,25.11,41.53,51.54,35.56,91.74,61.66,74.04,52.72,112.55,110.17,19.56,9.45,41.47,36.28,25.55,67.3,131.15,18.31,10.76,91.08,22.89,39.08,68.38,214.59,37.76,75.44,12.79,54.26,195.17,75.77,14.42,43.46,61.72,49.62,70.86,187.85,39.9,93.23,97.27,51.88,33.69,17.2,43.24,13.01,42.4,34.35,64.97,40.63,139.0,43.02,116.72,92.75,70.84,36.61,31.48,54.93,35.86,92.01,32.52,31.12,54.02,46.6,32.02,52.42,6.62,57.5,26.54,735.48,9.47,50.46,102.51,18.0,49.74,307.89,180.22,60.71,65.48,160.17,67.13,69.43,63.49,26.09,42.77,72.83,46.14,141.56,88.58,55.84,42.03,44.06,117.87,41.75,41.2,47.03,15.21,84.4,53.67,33.44,19.5,122.17,244.8,90.12,52.29,94.84,78.68,98.8,51.31,26.77,70.39,45.74,89.41,74.93,59.25,40.51,50.89,124.35,32.2,123.16,70.14,20.84,15.8,70.06,66.1,17.66,45.81,295.38,25.86,99.69,30.64,58.79,95.34,45.98,80.15,193.0,33.34,181.43,41.99,39.78,102.2,68.72,87.18,130.47,74.57,109.92,28.72,34.01,70.79,646.86,112.11,124.26,61.69,81.72,96.94,58.45,26.61,176.71,32.98,27.57,52.38,121.25,40.73,46.99,549.05,97.51,33.82,43.79,79.85,102.0,139.85,43.79,89.41,56.59,78.52,77.07,95.38,764.1,258.3,40.38,104.5,60.19,17.66,52.64,87.03,34.09,42.96,102.64,58.25,140.99,67.5,51.84,68.38,89.05,42.31,64.73,64.44,17.92,75.95,78.96,67.29,52.22,77.19,13.97,136.1,30.68,34.61,88.48,136.76,37.79,72.07,127.0,41.29,94.52,96.39,52.79,68.47,146.82,66.5,81.76,35.68,31.63,98.63,92.83,98.81,32.18,27.88,57.48,46.67,78.44,38.73,67.37,60.45,105.75,35.82,82.66,37.16,148.65,97.08,146.49,25.8,63.7,125.52,41.6,92.54,90.05,73.74,102.67,71.18,47.58,103.69,143.56,57.68,84.53,202.73,11.65,33.96,118.4,100.58,82.9,94.43,49.3,27.89,117.41,16.52,18.57,52.93,67.18,47.4,101.18,69.34,256.57,168.94,59.08,46.95,105.16,54.27,41.5,79.01,61.05,62.03,82.79,29.94,148.65,26.41,10.3,2.77,78.6,90.72,31.22,132.33,50.18,62.39,40.32,87.88,21.1,40.61,55.31,42.38,56.34,25.25,75.23,127.74,56.26,36.97,95.14,62.3,76.57,24.87,88.05,1575.0,38.26,20.53,20.89,85.2,36.78,64.36,22.4,53.27,75.69,116.39,38.9,66.99,22.79,36.0,27.91,78.18,37.83,25.77,71.23,66.54,58.46,45.15,74.32,41.08,67.73,102.14,90.34,55.86,37.92,52.5,57.45,70.4,181.09,90.14,34.36,89.22,330.29,58.06,105.98,177.29,62.66,64.64,63.05,66.06,230.35,28.82,109.33,76.19,43.64,66.87,115.17,81.23,54.21,23.96,66.1,84.51,86.3,52.54,90.6,70.71,182.57,60.35,30.21,63.37,141.04,124.72,55.09,41.18,78.04,52.65,130.75,83.46,49.31,72.5,38.04,145.14,33.33,68.5,72.74,53.76,78.55,71.35,15.35,74.03,78.16,50.85,25.31,49.18,73.95,54.37,55.9,118.56,60.75,58.09,47.51,57.99,13.26,29.85,66.56,519.38,144.34,123.89,34.98,143.12,186.4,187.37,15.13,114.23,246.86,96.39,30.18,42.61,136.19,83.81,45.57,237.9,51.39,79.27,155.75,185.36,26.91,52.46,50.76,110.5,70.85,20.25,45.68,56.8,43.11,85.53,84.46,1236.28,95.66,334.19,78.67,11.57,181.78,297.98,37.0,101.97,272.45,123.43,152.35,110.45,69.24,36.5,87.81,28.66,26.46,450.0,102.89,80.37,29.43,63.44,76.25,37.79,75.21,143.14,51.4,36.06,40.5,87.82,64.57
2016-01-06,63.92,124.86,46.68,58.33,155.01,53.07,42.1,18.17,59.46,60.86,71.89,39.15,45.49,30.53,32.82,87.94,24.68,40.31,50.1,35.67,90.78,59.44,73.18,52.1,109.82,108.42,19.21,9.26,41.04,35.45,25.91,66.77,129.0,18.28,10.51,87.92,22.96,37.91,67.71,217.83,37.28,74.51,12.25,53.97,191.87,74.8,14.5,42.77,61.3,49.04,69.19,190.16,39.22,91.34,93.71,50.89,33.77,17.04,42.68,12.69,41.97,33.82,64.0,40.02,136.55,43.24,115.78,91.02,70.68,36.06,30.63,54.32,35.5,91.1,32.0,31.03,52.91,45.55,31.25,52.17,6.37,57.1,26.08,733.32,9.4,48.36,99.83,17.94,49.02,304.83,177.8,59.79,64.47,158.36,65.93,68.55,62.83,24.8,42.49,71.21,45.7,142.99,87.31,54.92,40.3,44.0,116.35,40.48,40.64,46.12,15.16,83.93,52.96,32.72,19.69,121.75,250.0,89.69,51.72,94.89,78.04,98.94,51.48,25.91,69.14,44.63,88.56,73.25,59.57,39.32,49.53,115.3,31.61,120.79,69.88,20.65,15.55,68.5,63.61,17.02,45.77,292.6,26.33,97.57,29.98,57.7,94.43,44.76,80.76,194.69,32.28,183.23,42.12,40.37,101.46,68.22,87.06,128.46,72.54,109.34,28.14,32.78,70.0,622.0,109.93,126.66,62.33,80.41,98.07,57.0,25.83,171.31,32.35,27.11,51.0,117.56,40.24,45.73,547.3,96.9,33.21,43.33,78.06,102.51,139.62,43.2,88.37,56.69,78.86,75.72,93.49,750.37,255.0,38.65,102.22,59.36,17.32,51.82,87.03,33.79,42.31,102.14,58.43,138.83,67.47,51.42,65.98,87.44,42.2,64.21,64.45,17.59,75.16,79.37,67.57,50.82,76.64,13.56,135.0,30.27,33.49,86.71,134.38,37.47,71.29,127.84,41.76,93.96,95.53,52.51,68.55,145.59,65.57,81.22,35.85,31.32,96.44,93.51,98.38,31.73,27.89,58.05,46.1,77.67,38.64,65.24,59.87,100.56,35.72,81.08,36.79,145.84,96.15,143.46,25.07,62.72,125.66,41.17,91.62,88.33,73.8,99.38,71.11,46.29,103.89,142.57,56.8,83.13,197.41,11.52,33.25,117.15,99.82,82.69,95.34,48.02,27.23,118.0,16.19,18.71,52.12,66.75,46.64,99.1,67.92,251.02,166.29,58.66,47.06,101.33,52.95,40.92,76.75,60.34,62.48,80.54,29.63,142.79,25.54,10.13,2.66,76.53,90.4,30.61,129.95,48.98,62.43,39.88,87.25,20.73,40.33,53.76,42.35,55.39,24.9,73.83,128.64,56.19,37.09,93.9,62.46,76.92,24.58,87.84,1589.75,38.14,20.24,20.92,84.01,35.74,63.68,22.23,53.1,74.1,114.43,39.56,66.45,21.62,34.99,27.37,77.53,37.5,25.3,71.5,63.57,57.94,44.37,73.37,40.35,68.49,101.44,90.41,53.47,37.25,51.67,56.1,67.78,178.74,88.47,34.22,89.71,328.24,56.77,106.04,173.35,61.31,64.11,62.81,66.34,227.31,28.05,108.33,75.91,43.1,65.3,114.16,78.75,54.27,23.55,64.02,82.88,82.27,52.32,86.84,70.26,180.39,59.66,29.38,62.46,134.66,125.88,52.8,40.05,71.55,51.58,129.99,82.14,47.79,72.03,36.89,146.25,31.95,69.5,72.2,51.93,79.01,70.99,15.16,73.18,76.5,51.04,24.61,47.87,73.32,54.03,54.24,116.68,59.73,57.3,47.27,56.37,12.53,29.83,65.49,499.0,143.94,120.8,33.7,141.21,184.53,183.08,14.62,113.74,243.63,94.22,29.79,40.73,130.58,82.48,44.7,238.01,51.86,78.94,153.87,183.72,27.08,49.78,46.66,109.87,68.75,19.12,46.0,57.67,43.35,86.5,80.21,1186.0,95.42,327.28,79.28,11.72,176.17,299.64,36.42,100.81,271.32,125.24,149.68,105.29,67.73,35.65,89.69,27.83,25.96,437.94,101.13,79.12,29.48,62.47,75.0,36.32,74.01,134.57,49.3,36.43,39.98,85.11,63.62
2016-01-07,63.88,121.27,44.0,57.12,153.06,50.45,37.37,17.3,58.36,59.83,71.14,38.14,45.12,29.56,32.49,85.96,24.41,40.15,49.07,35.59,89.29,58.1,70.42,51.0,105.95,107.34,18.93,9.05,40.31,34.36,24.85,68.5,126.93,17.98,10.32,85.33,22.38,36.65,65.42,213.81,36.32,72.84,10.83,53.13,189.75,74.63,13.86,41.62,60.39,47.07,67.37,187.9,38.59,90.01,92.21,48.44,33.67,16.25,42.09,12.43,42.95,33.62,62.03,39.71,135.0,43.47,113.63,88.53,69.0,35.38,29.88,52.7,35.25,89.4,30.92,30.61,52.65,45.34,29.93,52.58,5.98,56.28,25.49,720.29,9.09,47.78,98.84,17.64,49.4,299.84,175.08,58.79,62.27,154.85,64.53,66.34,62.28,24.15,41.27,69.81,44.35,149.5,86.82,54.09,39.65,41.46,113.98,39.89,39.67,44.48,14.9,83.8,52.52,31.19,19.72,121.23,248.48,89.53,51.52,93.025,77.19,97.83,51.14,24.97,67.51,42.74,86.42,72.1,58.3,39.18,48.16,115.54,29.21,119.04,69.6,20.48,15.31,65.92,62.32,15.71,44.74,286.52,25.85,98.06,28.89,56.88,94.5,43.99,79.56,192.92,31.51,181.45,41.72,39.76,100.87,67.36,83.52,127.87,72.29,107.5,27.32,30.68,68.72,621.8,106.12,125.51,64.0,79.62,96.9,56.03,25.8,166.67,30.74,26.36,49.34,117.01,40.14,43.31,545.46,94.07,32.1,43.04,75.05,102.16,136.12,41.3,87.36,56.37,77.26,75.13,91.56,746.49,250.43,35.31,98.0,58.5,16.81,50.79,86.68,32.16,41.68,100.54,58.47,136.38,65.85,50.88,65.08,84.55,41.65,63.4,64.54,17.15,74.39,78.78,67.67,49.95,76.06,12.9,133.69,29.65,32.79,86.71,133.7,36.79,71.09,126.92,41.33,92.61,94.5,51.52,67.91,142.52,64.63,78.06,36.1,31.52,95.07,90.49,98.46,31.16,27.82,57.92,44.74,76.85,38.16,63.31,58.53,98.68,34.91,79.64,36.89,144.52,94.32,141.0,23.82,61.46,125.42,41.19,89.92,87.03,73.58,98.96,71.05,45.6,103.19,138.0,55.7,81.13,197.18,11.05,32.28,115.61,99.31,81.63,94.0,45.54,26.78,117.44,15.73,18.8,51.01,64.07,45.79,96.08,66.23,243.63,165.0,58.03,47.0,99.12,52.39,39.38,73.39,59.36,62.97,82.4,28.92,138.28,22.21,9.95,2.43,76.57,88.33,30.17,129.89,47.59,62.17,38.82,85.85,19.62,37.98,52.31,42.25,53.03,24.41,71.7,129.16,54.83,36.25,91.47,61.92,76.58,23.69,86.92,1565.01,36.8,19.84,20.55,83.71,34.49,63.45,21.72,52.18,73.0,111.51,39.38,65.94,21.0,34.59,26.79,72.2,37.87,24.79,70.49,60.67,55.53,43.5,73.0,40.46,68.38,100.1,89.63,51.26,36.51,50.81,55.26,65.48,176.68,87.18,33.33,88.09,318.79,55.79,104.45,171.21,59.76,63.53,62.48,64.71,226.48,27.79,106.71,76.28,41.28,63.84,111.22,78.61,53.34,23.36,60.74,79.68,79.63,51.62,81.87,69.24,179.8,59.17,28.9,61.79,130.2,125.42,51.68,40.97,66.6,50.39,129.25,81.21,48.39,72.45,35.5,145.29,30.26,69.24,72.01,49.32,79.11,69.87,14.46,69.48,72.1,50.8,23.75,46.67,71.68,52.97,54.4,113.45,57.42,57.31,46.99,56.52,12.44,29.47,65.14,510.5,143.66,119.01,33.15,142.3,179.83,178.44,14.5,110.66,237.1,93.18,29.89,39.26,127.48,81.12,43.32,235.56,51.68,79.25,151.47,180.51,26.73,47.67,44.5,108.02,64.89,19.02,45.28,56.63,43.32,85.43,77.51,1171.97,93.68,320.6,79.39,10.83,170.9,304.73,35.4,99.75,266.94,116.38,144.8,116.36,63.94,34.05,89.87,26.17,25.75,415.08,100.5,76.67,29.42,60.77,73.76,35.79,73.3,131.31,47.84,35.17,39.02,82.38,61.63
2016-01-08,64.51,120.3,43.93,57.67,153.12,50.74,36.86,17.23,56.17,59.6,70.91,38.2,45.66,29.74,32.89,85.36,24.37,40.24,48.73,36.16,88.7,58.56,71.16,50.27,105.49,105.75,18.77,9.04,40.64,34.21,25.04,69.25,126.44,17.94,10.4,85.18,22.31,36.3,66.14,215.01,36.36,72.67,10.78,53.81,188.47,74.68,13.78,40.79,60.06,48.48,68.01,188.79,37.46,89.95,92.92,48.52,33.57,16.59,42.38,12.29,42.41,33.77,60.76,39.94,135.6,43.88,112.35,88.45,70.23,35.42,29.41,52.37,35.13,89.68,31.1,30.67,53.65,45.52,29.51,52.69,5.67,56.35,25.55,735.96,9.01,46.81,98.04,17.7,50.82,304.19,174.56,58.8,62.36,155.28,64.97,65.75,62.65,23.46,41.54,69.24,45.15,149.88,87.19,54.86,38.97,42.66,113.54,39.6,40.54,43.9,14.56,83.97,51.72,31.13,19.52,120.64,250.2,89.0,52.54,92.84,76.98,98.33,51.79,25.18,67.46,43.44,88.24,71.18,58.89,39.28,47.53,117.25,28.35,119.05,72.2,20.52,15.37,65.86,63.21,16.78,43.67,284.65,25.8,96.9,28.51,57.41,94.94,43.0,81.06,191.75,31.78,183.13,41.57,40.02,99.16,67.75,83.7,129.59,71.37,107.01,27.26,30.85,67.99,619.66,105.0,125.0,63.24,80.9,95.99,56.87,25.97,166.75,30.67,26.25,48.51,116.06,39.22,43.41,539.66,93.2,33.01,41.65,74.9,102.21,135.49,40.72,88.36,57.47,77.72,74.78,91.97,747.8,255.65,34.4,97.9,59.52,17.09,50.99,87.58,31.24,41.86,99.92,58.35,133.7,65.6,51.19,64.33,83.39,41.65,63.1,65.82,17.18,75.36,78.72,68.48,50.05,76.35,13.05,130.94,29.2,33.03,85.98,133.18,36.3,71.34,127.2,41.26,91.51,94.59,52.51,67.58,141.36,64.33,78.3,36.58,31.02,95.68,87.13,97.83,31.55,27.9,58.3,44.18,77.36,38.85,64.18,58.81,98.55,34.76,78.93,36.87,145.19,93.78,142.0,23.8,61.13,125.85,40.57,90.46,87.87,74.21,100.63,71.19,44.99,104.87,135.6,55.17,81.15,198.14,10.83,32.09,116.99,99.88,81.67,96.95,45.86,26.26,115.75,15.94,18.51,50.8,64.76,46.08,94.15,66.36,243.4,165.11,58.33,46.99,98.59,51.52,39.68,73.56,59.74,65.08,81.88,28.23,139.12,21.06,9.94,2.36,74.89,88.81,30.44,128.64,47.06,62.18,38.81,86.5,19.48,38.88,52.08,42.44,52.64,24.33,68.91,128.88,55.37,36.67,91.57,62.36,77.07,23.68,86.61,1558.0,36.6,19.85,20.36,82.66,34.53,63.62,20.83,52.4,72.92,110.34,40.86,65.4,20.51,35.69,25.84,69.84,37.62,24.81,70.35,59.8,55.6,43.46,72.64,40.09,68.81,97.08,91.13,50.45,35.82,52.14,55.23,64.88,177.39,87.71,32.56,87.13,318.72,56.26,102.99,175.12,60.31,64.38,61.87,63.91,228.86,28.46,107.56,77.02,39.3,62.71,110.64,78.35,53.45,23.25,61.0,80.11,79.02,51.85,83.33,69.58,184.8,59.63,29.19,63.08,129.8,127.75,50.2,40.94,68.56,50.29,130.11,81.49,47.48,72.01,35.94,145.72,30.46,68.16,72.19,48.44,78.95,68.98,14.52,69.44,72.38,51.17,23.0,46.77,71.91,53.84,53.62,113.27,57.96,58.09,46.94,57.55,12.56,29.36,64.48,505.02,145.34,115.62,33.46,144.53,179.23,177.78,13.77,112.2,239.75,93.48,30.23,38.38,130.01,82.39,43.54,236.28,51.76,78.74,152.32,175.01,26.38,47.7,43.05,106.74,63.05,19.04,45.49,56.38,44.3,84.78,75.71,1172.51,93.11,317.56,77.3,11.36,168.74,304.6,35.14,99.48,263.02,115.48,149.03,116.33,61.51,34.38,90.46,25.5,25.65,419.84,99.88,76.92,30.6,59.0,74.06,36.79,73.39,130.03,48.34,34.87,39.13,80.52,61.3
2016-01-11,64.19,121.13,43.55,57.02,151.33,51.04,36.67,16.98,55.3,59.84,69.89,37.65,45.11,29.08,32.38,82.31,24.18,39.33,46.56,36.15,88.85,58.0,70.23,49.55,104.66,103.02,18.46,8.84,40.01,33.66,23.01,68.68,124.87,17.71,10.14,84.37,22.17,35.67,65.76,215.07,36.08,71.45,10.4,52.44,168.99,74.01,13.37,39.41,58.97,46.53,66.68,187.48,36.74,88.38,91.03,47.67,33.59,16.05,41.61,11.99,42.3,33.76,58.98,39.86,134.34,43.54,110.51,86.98,67.1,34.65,28.45,52.51,34.75,88.07,30.59,30.29,53.0,46.69,29.21,52.35,5.4,55.97,24.93,712.56,9.12,46.36,98.37,17.48,49.29,300.22,173.08,58.39,63.15,152.3,63.88,64.82,62.39,23.2,40.94,68.51,44.03,147.72,84.92,54.88,38.12,43.0,110.09,38.86,40.58,42.54,14.47,83.85,50.06,30.84,19.5,120.6,248.2,88.15,52.49,91.78,76.72,96.47,51.75,24.79,65.7,43.43,87.85,68.27,57.1,39.0,47.03,116.89,28.8,116.98,68.26,20.54,15.04,65.88,63.39,17.08,43.36,280.59,25.28,97.22,27.52,57.0,93.82,41.9,79.15,187.22,30.23,179.66,41.22,39.29,95.51,67.72,83.37,127.78,69.76,106.47,26.98,30.01,67.64,612.48,103.21,121.95,63.07,78.18,94.73,56.08,25.95,165.0,29.66,25.91,48.27,112.11,38.71,42.32,540.56,90.92,31.98,41.33,73.42,101.69,132.12,40.33,86.45,56.53,77.21,73.74,90.25,731.95,251.93,34.01,96.04,58.61,17.01,50.46,87.44,30.98,40.77,98.82,58.38,130.85,63.71,51.21,63.67,82.85,41.58,62.85,66.59,17.19,73.89,78.59,69.59,49.64,75.01,12.8,131.4,28.54,32.42,84.29,131.81,36.18,71.67,125.52,41.08,89.12,93.83,51.25,67.74,140.97,64.66,78.02,36.23,31.7,94.84,88.03,97.34,31.15,27.95,58.68,43.32,76.17,38.43,63.74,57.89,98.97,34.54,78.45,36.31,143.09,93.92,138.93,23.38,58.83,126.67,40.64,89.42,86.59,71.53,100.21,71.25,44.18,105.32,134.86,55.39,79.77,194.16,10.66,31.81,117.28,98.24,81.3,93.64,44.53,25.57,115.65,15.26,18.12,50.18,62.96,45.59,94.02,65.19,242.5,163.13,58.46,46.8,96.89,50.83,39.19,74.36,57.18,63.76,81.77,27.98,136.49,20.31,9.64,2.16,70.66,87.53,29.53,129.12,46.36,61.71,38.35,86.6,19.26,37.67,51.6,42.17,51.17,24.19,67.29,128.91,54.52,36.1,91.09,62.1,76.94,23.25,85.93,1541.0,36.65,19.25,19.91,85.13,32.45,62.05,20.78,52.12,71.8,107.21,39.96,65.14,20.12,33.57,25.45,69.49,36.6,24.18,69.3,59.5,54.94,42.63,70.82,39.75,67.94,95.9,90.46,49.24,35.2,52.16,53.86,63.52,175.56,85.73,32.59,85.55,315.39,55.32,103.06,175.0,58.55,64.78,60.27,62.69,223.89,27.21,106.14,77.12,39.59,63.01,110.51,70.87,52.79,22.89,60.64,78.72,79.84,50.54,85.5,68.76,182.64,60.08,28.81,62.66,130.15,127.85,50.65,40.56,67.18,49.15,128.92,82.26,46.99,71.35,35.81,145.84,30.37,68.41,71.35,48.03,78.45,68.87,14.87,70.01,71.13,50.91,23.71,46.17,70.48,52.52,52.2,114.18,55.88,58.97,46.1,55.86,12.4,29.0,68.7,495.05,145.79,109.88,33.02,146.21,176.51,177.59,13.43,110.29,235.77,92.55,30.35,36.92,126.75,82.51,42.07,234.85,51.39,78.22,150.51,169.6,25.71,46.96,44.66,104.71,62.17,18.8,44.51,56.48,44.18,83.62,73.84,1136.0,91.81,309.07,76.66,11.33,173.27,311.74,33.89,98.48,257.27,117.01,146.13,112.13,59.01,33.12,90.26,25.0,26.08,416.65,97.91,75.86,29.73,58.6,73.11,35.9,73.7,129.5,46.44,34.51,37.58,78.83,60.02
2016-01-12,63.1,120.69,42.49,57.63,148.43,51.55,35.55,16.93,55.51,60.05,69.78,38.0,45.24,29.61,32.63,81.27,24.35,38.29,47.495,36.23,89.63,57.95,70.29,48.17,105.83,102.47,18.41,8.78,40.4,33.62,22.85,70.29,126.78,17.64,10.18,84.09,22.08,35.81,65.92,216.03,36.14,73.28,9.7,52.54,164.78,73.87,12.72,39.81,60.35,47.37,66.77,189.06,36.45,89.16,91.31,47.66,33.99,16.33,41.73,12.1,42.51,34.1,59.27,40.31,136.29,43.64,110.36,86.73,68.81,35.1,28.74,52.76,35.32,89.89,30.6,30.85,54.44,47.04,29.04,52.97,4.47,56.05,25.51,722.51,9.1,46.45,99.5,17.24,50.39,301.36,169.55,58.43,63.22,155.71,63.1,65.56,62.32,23.2,41.35,68.57,44.15,148.19,85.25,54.62,38.27,43.3,110.38,38.9,40.19,42.78,14.92,84.61,49.73,29.45,19.82,121.6,250.12,88.03,52.66,91.66,76.79,96.15,52.12,24.42,65.73,43.4,88.07,68.58,56.1,39.11,46.86,115.94,27.66,116.33,69.87,20.51,15.16,64.65,64.66,16.32,43.53,281.18,25.89,96.9,28.0,58.39,94.69,41.99,80.86,187.46,30.25,181.1,41.46,39.67,94.45,67.49,83.52,127.26,69.56,107.69,26.92,30.39,68.67,625.25,103.6,123.4,61.99,78.72,95.11,57.5,26.11,166.89,30.21,26.29,46.01,112.05,38.43,42.4,544.66,91.81,33.21,41.68,74.02,100.68,130.5,40.19,87.69,57.89,77.76,73.97,91.61,740.75,255.0,33.13,96.81,59.96,17.07,50.97,89.61,30.5,40.99,99.24,58.89,131.58,63.25,51.87,62.44,82.2,42.3,63.27,66.35,17.49,75.0,79.77,69.64,49.73,74.12,13.03,132.44,28.76,31.95,84.99,133.65,36.72,71.96,126.32,41.53,88.93,95.64,51.51,68.27,141.36,64.93,76.54,36.61,32.2,95.33,90.82,98.41,31.38,28.18,59.96,41.87,77.0,38.72,64.8,58.2,100.55,34.56,78.86,35.79,142.4,94.56,135.41,23.58,59.45,128.12,40.49,89.08,86.35,72.97,100.97,72.14,44.28,105.77,133.94,56.21,79.55,189.6,10.76,32.76,118.67,97.99,80.61,94.23,43.78,25.44,117.03,15.54,17.12,50.88,61.42,45.64,94.76,65.95,243.85,164.25,59.28,46.92,97.22,51.73,39.25,75.51,57.49,64.38,81.58,27.93,135.76,18.93,9.53,2.4,71.16,87.2,29.8,128.48,45.95,62.7,37.87,87.32,19.43,38.68,52.04,42.39,51.25,25.04,66.29,126.9,54.85,36.44,90.99,62.54,77.12,23.07,86.4,1555.0,36.72,19.42,20.24,87.56,33.36,62.31,21.09,51.63,71.91,106.74,39.83,64.95,19.87,33.26,25.15,68.82,36.25,24.1,68.95,59.57,54.88,42.44,70.12,40.32,69.1,93.62,90.89,48.79,35.44,52.67,53.87,63.29,177.56,86.3,32.86,84.99,312.38,56.33,104.54,176.06,60.23,61.0,59.12,61.43,230.15,27.02,107.27,79.3,39.31,63.03,107.82,71.05,53.4,22.94,58.64,79.73,80.47,51.03,83.59,68.67,182.81,60.41,28.54,63.46,126.25,127.37,50.46,41.15,66.72,48.72,129.11,83.21,47.07,70.0,35.69,147.38,30.63,68.83,72.85,46.75,78.76,69.09,14.31,70.3,72.52,51.27,23.94,46.14,70.98,53.52,51.66,115.41,53.19,57.4,43.87,54.47,12.35,29.06,68.51,486.0,146.79,104.95,33.35,144.95,175.18,177.54,13.35,111.03,237.94,94.5,31.33,37.49,125.95,82.96,40.02,234.6,52.52,77.57,147.5,162.99,26.07,48.07,44.37,105.18,61.99,18.72,45.27,56.79,44.79,84.21,77.21,1141.83,93.19,312.42,76.49,10.31,167.16,314.76,33.65,99.96,255.64,115.51,147.52,116.11,58.45,31.72,91.45,24.3,25.95,415.5,99.0,76.71,30.95,58.53,74.52,36.65,74.3,129.86,46.21,34.35,37.71,77.44,59.96
2016-01-13,63.8,121.93,40.19,58.32,151.14,51.72,35.94,16.92,55.07,59.94,70.88,38.01,45.11,30.15,32.51,79.99,23.5,38.79,47.32,35.94,89.17,55.72,70.94,48.67,106.65,102.84,18.42,8.81,40.92,34.21,22.96,70.53,127.47,17.32,10.22,84.49,22.05,35.93,65.81,219.26,35.98,73.64,9.4,53.43,163.88,76.97,12.78,40.15,60.53,47.2,66.58,189.0,36.61,89.32,90.98,47.73,33.62,16.66,42.31,12.13,42.91,34.01,59.77,40.7,137.42,43.54,112.41,86.89,69.22,35.14,28.73,53.8,35.19,90.59,30.51,30.88,54.38,47.06,29.11,53.19,4.18,56.6,25.42,732.83,8.8,47.22,100.59,17.89,49.48,297.64,168.93,58.82,63.83,155.97,63.58,66.28,62.48,22.76,42.01,70.51,44.08,147.13,86.96,55.45,38.25,43.42,110.98,39.39,39.83,43.41,14.34,85.74,50.5,29.12,19.52,122.0,250.49,89.57,53.67,93.32,76.75,94.41,51.85,24.16,66.97,42.5,89.5,68.49,56.61,39.5,47.5,114.99,26.36,115.01,70.33,20.76,15.12,63.42,66.26,15.71,43.52,279.42,25.56,97.25,28.47,59.8,95.11,42.12,80.09,185.79,30.01,179.58,40.87,39.2,94.31,67.4,84.34,127.44,70.8,108.27,27.21,30.82,68.17,620.88,104.96,121.15,63.06,79.32,94.85,59.74,26.41,166.46,30.41,26.33,47.14,112.44,38.35,45.31,562.44,91.72,32.73,42.11,74.9,103.5,135.62,40.19,88.86,57.77,78.56,74.99,92.07,749.34,254.4,32.87,96.34,60.21,17.09,51.44,89.0,30.51,41.48,99.75,58.23,132.7,63.6,53.42,62.07,83.16,42.17,63.6,65.68,17.4,74.81,80.42,69.04,50.11,75.85,12.73,132.52,28.91,31.92,85.24,133.5,36.55,71.54,126.62,41.21,88.88,95.84,51.91,68.62,140.89,65.07,76.16,36.3,32.21,95.98,89.54,97.47,31.09,27.96,59.35,40.75,76.97,38.63,63.65,59.16,100.32,34.34,79.34,35.74,143.46,94.69,139.23,23.52,59.46,128.56,40.8,89.67,86.87,73.29,101.88,71.36,44.57,105.68,135.31,56.49,79.92,188.65,10.83,32.76,118.85,98.49,80.74,95.32,43.5,25.6,117.69,15.47,17.07,51.73,61.75,45.27,94.78,65.6,247.83,165.0,59.9,46.55,98.39,51.52,39.29,76.2,58.16,63.73,81.83,27.12,134.82,16.48,9.59,2.4,71.13,87.71,29.97,128.03,45.22,62.27,38.16,88.88,19.49,38.43,52.71,41.73,50.91,25.97,66.66,130.1,55.06,36.09,90.67,61.79,78.05,22.96,87.47,1585.0,36.9,19.27,19.84,88.96,33.27,62.34,21.35,51.09,71.64,104.55,40.16,65.8,19.7,33.59,25.31,66.94,36.73,24.08,69.5,59.97,55.43,42.11,69.76,40.22,68.06,88.52,89.73,49.62,35.24,53.63,54.02,63.75,176.03,86.87,33.83,83.71,318.4,55.89,101.57,175.36,59.62,61.89,58.68,63.06,230.1,27.07,106.98,78.21,39.15,63.54,105.78,71.87,55.62,23.16,59.82,81.09,83.51,51.36,82.11,69.48,186.0,60.51,29.5,63.71,125.13,128.02,49.99,42.17,64.2,48.77,128.97,82.14,47.5,70.82,35.6,146.65,31.83,68.07,73.19,46.96,79.63,67.9,13.81,71.49,71.61,51.27,22.05,46.34,70.56,54.26,51.16,112.4,52.38,59.3,45.25,54.55,12.51,29.82,66.6,474.85,146.09,104.3,33.28,147.37,177.24,179.42,13.35,113.26,244.62,94.05,31.11,35.49,128.17,85.26,37.92,235.27,52.45,78.83,146.68,166.61,25.41,47.83,40.74,103.2,61.96,18.67,45.43,56.07,44.67,84.47,75.44,1155.99,92.79,315.21,78.15,10.04,169.52,314.24,33.28,101.39,258.69,116.46,148.34,114.43,56.16,31.59,91.18,24.75,26.43,407.8,100.58,78.91,30.82,58.52,75.27,37.48,74.52,127.75,46.71,34.39,37.67,79.75,60.53
2016-01-14,63.84,119.24,38.88,57.02,146.02,50.54,35.88,16.36,51.04,58.84,68.62,36.74,44.22,27.08,31.59,78.3,23.1,36.74,45.42,36.1,86.57,55.38,69.56,47.36,103.48,101.0,17.49,8.38,39.6,33.09,22.46,68.95,121.29,17.11,9.82,82.83,21.76,34.69,65.03,214.42,35.31,69.85,8.7,52.4,157.64,74.83,12.08,37.61,59.0,46.06,65.39,184.86,35.88,85.82,89.89,46.66,33.55,16.3,40.86,11.78,40.31,33.88,57.28,40.17,133.64,43.06,108.74,83.67,67.7,33.84,26.99,52.0,34.19,88.92,29.44,30.21,51.65,45.04,27.88,52.44,3.81,55.52,24.69,702.82,8.66,46.21,98.24,17.63,50.08,286.64,163.89,57.97,60.21,151.96,62.89,64.01,61.85,22.65,40.21,69.25,42.66,143.9,85.37,53.55,37.59,42.82,107.05,38.55,38.15,41.54,13.53,84.95,49.0,28.34,19.48,119.22,249.77,89.49,53.05,90.81,75.47,93.26,51.8,23.1,65.15,41.75,87.17,66.38,55.93,38.99,46.87,115.12,25.04,112.08,65.3,20.3,14.57,64.67,63.3,15.85,42.13,268.57,25.39,92.72,27.26,57.51,92.31,41.46,79.33,184.71,29.16,177.71,40.59,38.56,92.79,66.15,83.32,124.14,67.88,105.94,25.82,29.35,66.92,580.25,100.62,119.35,62.84,76.35,92.74,58.17,25.42,160.3,28.66,25.68,45.98,106.74,36.94,43.61,549.29,87.61,31.59,41.55,72.16,101.43,134.79,38.77,84.62,56.09,78.57,72.42,89.4,724.44,248.26,31.97,92.95,59.41,16.7,49.06,88.39,29.31,40.34,97.34,58.28,129.59,61.32,52.85,61.24,81.95,41.99,63.03,66.56,17.12,73.38,80.19,68.97,48.71,76.21,12.19,129.13,28.31,30.67,84.09,131.93,36.17,70.95,125.93,39.58,84.87,94.11,50.67,68.28,139.74,63.66,71.5,36.17,31.6,93.29,90.22,96.4,30.39,27.53,57.7,39.21,76.1,38.7,62.85,56.78,97.96,33.42,77.6,34.97,141.67,91.0,134.96,22.65,58.16,128.23,39.56,87.65,85.22,71.62,98.65,71.73,43.53,104.81,130.74,55.34,77.62,185.62,10.6,31.97,116.09,97.1,79.28,92.18,41.97,24.58,115.59,15.01,17.17,50.08,60.75,44.69,93.37,64.36,243.66,161.9,59.45,46.8,96.63,49.98,38.0,73.86,56.55,62.0,80.0,26.89,131.04,13.42,9.27,2.29,67.33,86.11,29.0,125.56,43.66,61.88,37.08,85.53,18.09,35.5,51.54,41.59,48.84,25.35,63.25,129.66,53.7,36.06,89.08,61.71,75.94,22.55,84.23,1528.6,36.28,18.69,19.57,86.1,32.36,61.04,20.02,49.62,70.38,99.91,38.74,63.74,18.55,30.97,24.48,65.63,35.23,23.34,67.48,56.81,53.46,40.83,67.16,37.84,67.67,79.76,89.27,48.03,34.61,53.23,52.28,61.62,172.93,84.66,32.61,81.45,312.33,52.14,97.91,168.18,57.98,59.31,56.52,61.15,221.26,25.38,103.17,77.95,37.3,63.02,104.0,71.75,53.98,22.13,60.76,77.23,81.73,49.75,79.17,68.05,179.09,60.03,28.75,62.75,117.82,123.18,47.56,40.21,62.01,47.48,126.41,79.05,45.03,69.07,34.46,147.13,30.81,66.38,70.96,45.21,78.47,66.25,13.06,68.45,69.78,51.28,21.1,45.3,69.93,52.42,48.34,109.31,50.33,58.53,43.34,51.32,12.29,27.6,65.06,461.85,144.24,97.44,32.15,143.31,170.95,169.66,12.75,110.44,235.49,88.87,31.33,33.89,123.29,81.72,38.14,233.78,51.98,75.77,145.32,158.39,25.09,46.26,40.56,102.3,58.23,18.17,44.75,54.37,43.93,83.03,70.22,1098.21,93.08,305.26,74.81,9.87,165.42,306.07,32.66,99.12,249.05,113.51,142.18,105.65,52.76,31.19,90.44,24.08,25.69,447.0,95.85,75.93,29.93,57.0,73.15,34.92,72.02,124.19,42.56,33.5,36.26,74.91,59.8
2016-01-15,64.81,115.66,38.0,56.02,147.69,48.16,35.24,15.95,50.99,58.23,66.86,35.61,44.04,25.35,31.65,80.0,23.28,35.39,42.51,36.24,85.94,53.74,68.94,46.78,103.39,100.68,17.04,7.18,38.01,32.34,22.62,68.71,117.12,17.29,9.55,80.77,21.77,34.14,64.11,211.99,34.92,67.75,8.14,52.01,161.52,73.05,11.35,36.37,56.93,44.49,63.95,181.0,35.28,84.57,87.99,46.07,33.61,15.62,40.22,11.36,39.29,33.66,55.54,39.3,134.59,43.12,109.08,82.5,66.485,32.9,26.03,51.31,33.8,86.84,28.62,29.48,49.76,45.56,26.98,51.92,3.8,55.14,23.93,696.32,8.63,46.04,99.41,17.7,48.17,290.74,166.34,56.91,59.02,149.29,62.25,62.0,60.58,22.33,39.09,68.25,41.99,141.43,83.72,53.31,36.05,40.95,105.82,37.13,37.94,40.0,13.36,83.99,48.9,27.65,19.68,118.98,247.74,89.15,51.81,89.57,74.68,92.78,52.22,22.07,63.83,40.75,86.21,65.37,55.47,35.11,45.55,109.21,24.37,109.46,64.87,21.04,14.42,62.01,64.34,15.47,41.05,271.01,24.84,90.37,25.95,57.07,91.43,40.97,77.14,182.34,28.57,174.44,38.83,37.22,93.24,66.29,82.49,124.83,65.25,103.28,24.96,29.13,65.15,572.24,98.52,118.34,61.93,73.82,90.51,57.92,25.05,156.7,27.52,25.54,45.33,103.56,36.67,42.16,540.24,86.02,30.88,40.56,69.18,100.23,134.62,37.74,82.33,55.83,77.72,69.87,88.09,709.99,243.19,31.63,93.76,58.57,16.66,48.65,86.05,28.61,39.85,96.31,58.36,125.8,61.69,51.95,59.52,81.64,40.95,62.37,66.51,16.95,72.0,80.29,69.0,47.01,76.33,11.81,125.83,28.14,30.51,83.2,130.01,35.49,70.31,125.41,38.17,83.1,93.51,50.5,68.59,138.3,61.8,70.23,36.23,32.17,91.64,91.33,93.95,30.22,27.36,57.05,39.34,74.5,39.22,62.03,55.44,96.2,32.6,76.84,34.57,142.35,91.54,136.75,22.25,56.45,125.62,39.12,85.15,84.11,68.835,95.62,71.48,42.7,105.44,128.06,54.27,76.89,185.25,10.18,29.73,114.93,96.37,80.69,92.39,39.9,24.41,114.26,14.41,17.65,48.59,61.32,45.23,89.9,62.06,238.48,159.03,58.7,46.69,95.11,47.89,36.92,72.84,54.24,61.55,79.48,25.92,129.97,15.78,8.93,2.1,67.66,87.65,28.58,121.58,42.86,61.06,36.96,82.72,17.81,34.74,50.62,41.45,47.69,25.14,62.22,126.79,52.62,34.63,86.99,62.29,75.64,21.8,83.59,1498.44,35.57,18.82,19.17,85.16,30.43,61.55,20.08,49.72,69.6,95.07,37.99,62.3,18.23,31.01,24.04,64.03,34.61,22.19,66.87,56.01,51.34,40.12,66.26,36.81,66.23,74.48,88.05,47.64,33.8,53.17,50.28,61.41,171.42,82.76,31.61,79.92,303.0,49.18,96.96,167.97,56.48,58.7,56.12,60.87,221.9,25.39,101.68,77.32,37.47,61.0,100.69,67.76,54.46,21.99,59.68,76.12,80.54,49.38,76.64,66.55,173.2,60.46,28.34,62.09,116.48,122.29,46.39,39.04,61.1,46.94,125.34,77.01,43.88,67.17,34.26,146.32,29.46,65.53,68.9,44.62,77.89,64.02,13.06,66.3,69.25,51.3,21.29,44.27,66.96,51.21,46.42,108.83,47.84,56.67,43.0,53.01,12.36,27.44,63.7,464.59,138.89,98.15,31.62,141.91,167.97,166.5,12.6,110.81,229.5,84.86,31.21,31.26,120.88,80.66,37.55,228.97,51.68,73.56,142.64,156.27,24.7,45.6,37.92,100.47,55.56,17.5,44.27,53.83,43.48,82.78,67.09,1076.0,91.33,298.96,74.84,10.14,168.88,305.01,32.08,98.74,247.21,113.33,138.03,102.43,53.16,30.48,85.98,24.44,25.54,441.15,93.98,76.92,29.06,56.1,71.94,34.31,70.53,120.21,41.86,32.73,35.05,74.72,60.42
2016-01-19,64.57,118.79,38.97,57.08,153.45,50.33,35.5,16.36,49.4,59.65,69.45,36.38,44.74,27.05,32.12,82.2,23.54,36.5,42.85,36.5,86.35,53.5,70.43,48.12,104.0,103.94,17.41,8.31,39.47,33.17,23.1,72.64,120.54,17.43,9.78,81.94,21.99,35.07,65.5,216.69,35.92,70.81,8.21,52.76,166.49,74.4,11.28,37.68,58.19,45.76,64.88,186.37,35.79,87.14,89.43,47.39,33.55,16.14,41.41,11.65,40.669,34.21,55.84,40.14,134.57,44.0,111.49,85.1,68.17,33.7,26.83,51.48,34.54,90.29,28.78,29.83,50.83,46.3,28.05,51.99,4.58,55.97,23.8,712.97,8.64,46.5,98.48,18.03,48.66,297.3,162.16,59.02,60.44,151.79,62.59,63.69,61.02,22.56,39.5,67.43,42.98,144.82,84.68,54.82,36.06,42.75,105.69,38.0,39.12,41.72,13.28,82.5,50.57,27.89,19.89,119.51,250.12,91.96,51.52,90.84,76.95,91.65,52.91,22.7,65.95,40.94,88.5,64.75,57.22,38.05,46.02,114.55,24.88,112.39,67.08,20.1,14.67,63.15,66.84,16.53,43.42,276.98,25.74,93.14,27.28,58.67,92.84,42.18,78.67,186.0,29.13,177.03,39.29,38.16,93.29,66.81,83.41,127.47,65.46,106.61,25.48,30.18,66.5,577.09,101.44,119.82,64.48,74.85,89.76,59.57,25.61,157.56,27.67,25.71,44.82,104.81,37.64,43.86,558.54,87.14,31.68,41.05,71.24,101.79,136.67,38.7,85.96,57.21,79.12,71.86,89.56,720.15,249.3,32.04,94.61,59.15,16.89,49.78,86.44,29.38,41.1,98.42,59.0,127.06,63.61,54.04,60.26,84.17,41.77,63.79,68.0,17.02,73.57,81.26,69.23,48.6,77.93,12.15,126.9,28.72,30.89,83.67,130.11,36.76,71.02,126.15,38.65,84.72,94.87,51.6,68.83,140.1,62.3,72.26,36.73,31.92,92.8,92.68,94.66,31.12,27.63,57.78,39.74,75.8,39.89,63.41,56.53,98.41,31.94,78.92,35.45,143.83,93.18,136.28,23.12,57.73,127.57,39.25,87.03,85.45,69.85,95.0,72.47,43.61,105.46,129.21,55.3,79.14,190.41,10.27,29.98,116.08,97.93,82.31,93.18,41.0,25.07,116.63,14.69,17.81,49.25,63.5,45.76,92.63,63.16,243.49,158.0,59.45,47.25,96.86,48.62,37.88,74.99,55.37,62.25,80.92,26.23,130.0,16.56,9.23,2.08,69.42,86.76,29.4,123.0,43.477,63.45,37.99,84.99,17.92,34.38,52.37,41.38,49.13,25.85,64.26,130.88,53.7,35.84,86.35,63.02,75.37,22.45,86.86,1513.29,36.43,19.2,19.61,88.6,32.3,64.27,20.3,49.7,70.62,97.91,38.13,63.99,18.18,32.34,23.73,65.5,35.17,22.6,67.67,57.12,52.68,41.26,67.9,37.47,68.35,79.19,90.79,48.48,33.91,52.66,50.75,63.97,174.68,85.43,32.72,82.75,316.45,48.33,93.42,166.92,59.13,60.27,57.65,61.7,219.96,26.2,103.15,76.72,39.54,62.54,103.22,69.05,55.44,22.68,63.3,77.16,82.12,50.82,78.66,68.24,171.98,60.61,28.48,64.66,119.46,124.82,47.78,39.59,62.38,48.46,126.86,79.46,45.8,69.54,35.47,147.25,29.93,66.97,70.01,45.35,77.21,66.03,13.17,68.63,69.07,51.45,22.23,45.33,68.63,52.89,46.51,110.41,48.13,57.36,44.11,57.53,12.67,27.8,64.94,470.2,143.11,100.54,32.76,145.84,171.98,166.73,12.68,110.96,235.91,84.86,31.77,31.51,125.97,82.2,37.44,231.19,52.51,76.46,148.68,162.59,25.11,45.16,37.21,101.24,56.02,18.32,45.14,55.11,43.78,79.92,68.32,1099.42,94.51,300.4,75.62,10.22,173.71,308.5,32.97,100.16,255.21,113.66,145.09,106.57,59.85,31.46,87.11,25.76,26.14,478.36,96.53,80.38,29.39,55.71,72.94,35.52,72.71,122.76,42.4,33.47,36.15,75.02,60.05
2016-01-20,64.77,117.6,35.77,55.45,149.0,49.35,33.27,16.32,46.81,58.17,67.57,34.89,44.38,25.7,31.49,80.32,22.77,34.38,40.52,36.67,84.46,52.5,68.01,47.0,100.88,102.2,16.51,7.86,38.3,32.38,22.36,69.31,117.89,17.27,9.26,80.28,21.35,34.11,64.21,213.05,34.4,68.87,7.34,51.02,166.74,73.71,10.38,35.58,57.25,45.54,63.0,183.84,34.61,83.8,86.41,46.88,33.4,15.36,39.36,11.1,39.13,34.14,54.1,39.57,132.66,43.39,112.09,80.91,67.35,32.15,25.7,49.98,33.88,87.69,27.54,29.47,49.0,44.64,25.89,51.96,3.77,54.66,23.4,708.0,8.6,45.5,96.57,17.32,45.44,286.39,162.84,57.5,57.63,148.46,60.05,60.8,59.92,21.17,38.42,67.82,41.72,143.72,82.27,53.98,34.61,42.34,104.12,35.87,37.75,40.51,12.63,80.33,49.71,25.16,19.9,118.48,248.74,90.41,48.65,89.06,74.88,90.24,53.82,21.44,64.4,39.99,87.65,62.81,55.76,36.35,44.54,109.37,22.56,108.54,64.96,18.6,14.23,59.73,66.2,16.05,42.58,263.25,25.32,88.0,26.46,57.57,89.53,42.83,78.43,184.82,28.2,178.0,38.61,38.02,91.79,64.98,82.67,124.33,65.07,104.89,24.22,28.8,64.83,564.36,99.92,118.17,62.77,73.56,90.01,58.45,24.84,154.1,26.81,25.26,44.79,103.75,36.68,41.89,552.34,84.86,30.78,40.89,67.15,97.88,135.49,36.56,85.3,56.49,77.75,69.13,84.71,705.9,245.23,29.88,90.81,57.92,16.16,47.86,86.68,28.06,39.73,95.49,59.21,124.0,62.24,53.72,58.08,79.98,41.45,63.46,68.66,16.26,71.37,81.71,69.45,47.23,75.07,11.79,125.4,27.93,29.04,83.88,118.46,35.07,70.77,124.37,37.68,81.82,93.36,50.29,68.42,136.95,60.38,70.72,37.1,32.26,90.45,92.11,94.85,30.21,27.41,57.57,35.54,75.29,39.65,61.54,54.51,95.1,30.25,78.09,34.82,140.85,91.62,138.66,22.29,55.63,126.25,38.47,86.41,81.89,68.22,92.18,72.57,42.31,106.86,124.5,54.77,77.33,185.11,9.55,29.35,111.43,96.11,81.85,91.81,38.34,24.28,116.97,13.79,16.61,47.28,60.26,44.28,89.47,61.4,240.0,153.81,59.77,47.7,94.3,47.91,36.34,72.68,53.0,61.8,79.2,25.23,124.99,15.185,8.75,1.81,66.73,84.58,28.32,119.6,41.58,63.85,36.65,83.27,17.02,32.97,49.94,41.44,47.47,25.21,61.41,130.88,52.0,35.59,84.44,62.76,74.68,21.76,83.36,1506.25,36.3,18.54,19.26,84.75,31.0,62.4,19.14,48.53,68.55,94.26,37.15,62.51,16.16,30.42,22.92,61.63,33.98,21.87,66.2,55.58,50.18,39.98,66.18,36.64,68.73,71.63,90.36,47.56,32.94,53.0,48.25,61.95,171.47,84.15,31.95,79.41,304.53,46.4,89.11,166.11,56.41,59.16,56.14,61.18,218.22,25.48,100.87,74.29,37.59,59.63,99.32,65.8,55.34,22.04,59.0,73.25,80.37,50.13,73.62,65.43,173.3,61.01,24.07,63.73,112.95,121.04,46.76,38.53,59.37,46.41,125.6,78.0,46.09,69.54,34.33,147.22,28.86,67.26,69.28,41.58,76.22,64.37,12.05,64.6,67.41,52.37,20.81,43.26,65.5,51.99,44.77,105.76,45.58,55.77,42.57,54.21,12.12,27.34,62.44,438.53,143.3,93.33,31.43,144.6,167.04,160.25,12.0,110.0,232.33,80.25,29.93,29.91,117.47,82.53,35.88,231.61,52.71,76.0,146.66,153.9,24.57,42.4,35.54,98.95,52.38,17.31,44.41,55.21,43.2,79.17,66.18,1075.0,92.01,288.67,73.47,9.71,168.21,290.84,31.81,99.24,247.22,109.06,142.58,108.91,57.51,29.19,88.04,24.38,25.34,462.75,92.83,76.9,28.04,59.01,69.96,34.53,70.76,117.83,40.17,32.44,35.0,71.74,57.55
2016-01-21,63.9,118.18,35.07,55.74,154.75,51.51,34.33,16.55,47.98,59.39,68.19,35.71,45.0,26.61,32.24,80.32,22.37,34.17,40.51,36.02,84.59,52.51,68.26,48.21,102.11,102.0,16.76,7.86,38.94,32.98,22.61,69.89,117.38,16.95,8.74,81.83,21.1,34.96,65.3,211.2,34.22,68.57,7.75,51.66,170.0,74.77,10.45,36.18,59.08,46.29,62.04,183.47,34.95,84.54,86.66,46.94,32.9,15.58,39.96,10.88,39.99,33.99,55.2,39.8,133.47,42.33,114.67,82.09,67.3,32.67,25.29,51.0,33.91,88.64,27.42,29.77,48.48,44.02,25.29,51.9,4.14,54.63,23.09,713.1,8.64,46.36,98.25,17.58,45.74,294.57,165.64,58.21,59.75,148.97,60.7,60.85,59.5,21.47,37.92,68.32,42.35,144.97,82.63,53.61,35.39,43.33,104.72,36.87,37.9,40.85,12.92,80.3,51.86,26.13,19.5,119.38,241.21,91.43,50.0,88.81,75.65,88.91,53.0,21.47,65.33,40.04,89.39,61.62,56.74,36.67,46.93,108.92,21.33,109.98,65.12,18.93,14.51,60.24,67.19,16.95,47.1,269.67,25.57,90.37,26.55,57.84,92.8,43.32,76.78,182.76,28.48,172.66,37.59,37.16,90.9,65.48,83.41,125.4,66.94,103.86,24.41,29.54,65.11,573.58,103.51,116.37,64.3,74.29,88.87,59.46,25.87,153.97,27.78,25.82,46.33,106.39,37.35,42.32,556.51,86.57,31.58,40.82,67.75,98.52,137.15,36.59,84.49,56.35,76.76,70.36,85.23,720.17,244.55,29.18,92.09,58.14,16.54,48.78,85.42,28.12,40.18,96.82,57.38,122.77,63.94,54.11,59.0,78.8,41.45,62.32,68.25,16.76,71.99,80.18,69.05,47.57,73.16,12.01,124.38,28.13,28.23,84.96,121.3,35.45,70.12,123.99,37.87,82.92,94.55,50.78,66.58,136.96,60.4,70.95,36.65,31.15,93.0,90.1,94.04,30.61,26.88,57.48,34.87,76.02,38.96,63.0,55.11,97.06,31.26,78.69,34.8,140.9,91.58,139.38,22.0,55.74,125.37,39.25,87.46,84.58,68.07,92.87,71.7,42.35,105.43,123.26,54.59,79.15,183.1,9.61,29.65,112.1,95.77,82.56,90.95,38.19,24.32,116.51,13.67,16.47,48.03,59.11,45.53,90.59,61.21,245.19,152.52,59.03,47.28,93.66,49.66,36.49,69.5,55.43,60.98,79.45,24.7,131.63,15.44,8.75,1.82,68.61,85.23,29.19,124.33,41.35,62.44,36.9,83.69,17.73,33.23,49.08,40.73,44.52,25.72,62.08,132.52,51.71,34.98,84.83,61.74,75.28,23.14,83.02,1520.02,35.47,19.12,18.99,83.42,31.55,64.3,19.16,49.14,69.23,96.11,37.4,63.43,17.44,30.58,23.02,63.15,34.82,21.63,66.71,57.25,50.03,40.96,67.89,37.32,69.05,73.87,89.95,47.99,33.25,53.88,48.19,62.14,170.05,85.22,32.89,76.94,307.9,47.93,89.12,170.37,56.9,60.46,58.04,62.56,218.26,26.1,103.5,72.93,37.07,59.23,99.68,67.6,55.0,21.65,60.86,74.74,80.31,50.27,72.69,65.6,174.5,60.69,26.28,64.57,114.83,122.03,47.61,38.93,62.23,46.52,125.52,78.44,46.65,70.42,34.59,146.25,29.46,65.15,72.0,42.42,75.8,67.99,12.83,63.48,69.95,51.27,20.16,43.22,66.52,52.32,45.11,107.77,46.09,56.11,43.79,57.29,12.15,27.62,62.99,462.16,141.57,97.062,31.61,146.29,167.69,163.09,12.0,110.19,236.43,83.41,30.25,30.22,117.44,81.96,36.23,225.12,52.29,76.41,146.51,159.68,24.67,44.94,37.45,97.12,54.4,17.66,43.97,53.23,42.82,78.45,66.1,1084.36,94.4995,292.79,76.63,9.6,172.32,294.29,32.47,99.04,247.01,109.73,143.24,108.32,56.42,29.45,85.09,24.11,25.53,469.79,94.91,76.71,28.36,57.05,70.72,34.79,71.32,124.8,40.03,32.97,37.0,72.43,57.44
2016-01-22,63.46,119.1,39.41,56.72,156.45,51.5,38.99,17.18,48.64,60.0,67.8,34.82,46.41,27.68,32.71,81.39,23.07,33.9,41.05,36.22,85.55,54.1,69.7,48.12,103.88,103.87,16.09,7.96,39.3,33.97,23.34,73.22,121.64,17.77,9.093,82.76,22.0,35.99,65.64,213.71,34.99,70.36,10.19,52.03,172.3,75.38,11.18,37.39,61.29,48.3,60.59,183.23,35.64,85.79,89.63,48.19,33.46,16.27,40.46,11.36,40.0,34.88,55.51,39.77,133.59,42.35,114.67,83.73,68.72,32.19,25.26,51.41,34.55,89.55,28.17,29.93,50.18,46.5,25.11,52.53,4.59,54.67,23.6,722.71,9.28,47.81,99.4,17.81,47.16,300.95,167.44,58.91,62.58,152.18,62.69,62.15,60.9,21.79,38.74,69.23,42.57,145.27,81.36,55.52,36.75,43.89,103.74,37.41,39.28,41.91,13.75,80.45,52.6,29.69,19.73,120.38,242.79,92.59,51.56,90.27,75.58,90.03,52.75,21.53,66.77,41.33,90.98,62.11,56.82,37.73,48.53,117.3,26.44,109.93,65.09,19.26,14.35,66.44,68.0,19.36,47.51,266.36,26.38,90.4,26.99,57.55,93.07,44.29,77.37,185.1,28.96,173.16,38.14,37.28,91.89,65.79,84.51,125.66,66.41,103.63,23.63,31.58,65.16,588.73,107.84,117.46,65.09,75.0,90.91,59.63,26.46,154.58,28.33,26.05,46.97,108.0,37.91,43.61,568.88,87.29,33.16,41.09,69.43,99.27,140.09,37.77,83.57,56.66,78.08,70.45,87.73,742.0,245.11,31.11,92.15,59.06,17.26,48.86,86.75,28.93,40.2,98.14,58.46,124.42,64.46,54.45,61.23,84.46,41.64,64.33,68.22,17.2,74.19,79.94,69.14,48.87,76.42,12.26,125.5,28.55,30.47,85.23,124.67,36.03,70.66,125.79,37.55,83.46,95.8,51.44,67.26,140.14,61.56,71.28,36.31,31.58,92.79,91.68,94.88,31.0,27.51,58.15,38.21,77.4,39.47,58.39,56.35,98.63,32.52,80.83,35.75,143.37,92.02,137.9,22.92,56.44,126.86,39.67,87.91,87.42,69.18,95.95,71.58,43.89,105.8,126.2,54.76,80.26,187.81,10.13,30.12,113.46,97.02,82.4,94.32,39.65,25.55,118.44,13.65,16.43,49.03,63.53,46.68,91.45,64.52,248.43,152.14,58.83,46.79,94.46,50.84,37.0,71.34,57.75,62.44,80.63,25.36,135.97,16.91,9.21,2.11,74.38,85.92,29.35,125.07,43.07,62.7,37.31,84.01,18.66,34.12,49.41,40.56,45.34,25.79,65.27,133.92,52.56,35.22,86.95,61.76,77.51,22.77,83.23,1540.0,36.09,19.2,19.17,84.23,32.08,64.64,19.5,49.03,69.36,105.9,37.86,63.09,18.29,31.98,23.73,63.31,34.44,21.65,66.01,56.61,52.02,41.14,68.41,38.16,69.07,75.5,90.32,50.66,33.38,57.62,48.45,64.8,171.4,86.09,33.49,77.31,310.1,48.68,88.9,171.8,57.08,61.18,58.03,60.74,219.16,26.69,103.2,73.16,39.26,60.26,98.6,69.84,54.42,21.75,65.2,75.58,81.12,50.8,86.04,66.38,177.95,60.75,27.11,62.82,118.49,122.55,48.41,40.0,65.0,47.25,127.5,80.0,47.09,71.38,35.64,147.48,30.16,66.13,73.6,48.03,75.27,67.68,14.92,70.28,69.55,50.63,23.65,44.26,69.75,52.96,45.93,107.6,45.23,56.66,43.59,59.1,12.7,29.3,64.82,469.43,139.58,97.0,31.65,147.68,171.28,168.0,12.7,109.7,239.55,88.25,30.28,29.98,120.58,85.4,37.25,222.82,52.99,78.5,145.66,158.69,25.17,46.58,38.81,98.16,57.14,18.03,44.65,54.78,42.66,80.39,66.52,1111.83,90.37,295.84,78.79,10.04,172.71,293.7,33.64,99.79,252.6,111.88,144.94,104.723,59.0,28.24,86.2,25.25,26.36,466.22,96.41,78.45,29.38,58.4,72.67,35.08,71.56,126.48,40.69,33.79,38.06,77.43,58.15
2016-01-25,64.13,118.91,37.16,57.24,156.18,51.27,38.36,17.0,48.81,60.14,68.33,35.02,47.08,27.2,32.66,81.73,23.67,33.4,40.81,36.64,85.37,53.18,70.25,48.85,104.48,104.63,15.78,7.87,39.29,33.79,23.77,72.72,123.38,17.69,9.09,84.05,21.98,35.62,65.02,211.84,34.91,70.66,8.75,52.27,170.75,75.9,11.06,36.8,61.09,47.93,59.94,184.09,35.27,85.67,88.85,48.04,33.98,16.55,40.88,11.28,39.35,35.19,55.41,39.61,134.73,43.06,114.52,84.65,69.07,31.8,25.46,51.94,34.58,88.39,27.87,29.94,49.55,46.65,25.72,52.92,3.87,54.9,23.38,728.81,9.13,47.97,97.6,17.81,48.19,297.87,166.22,58.31,62.4,154.07,62.13,60.69,62.1,21.56,38.66,68.77,43.38,149.3,82.27,55.08,36.8,43.32,104.17,37.12,39.34,41.9,13.81,81.66,52.96,28.2,20.24,122.43,247.98,93.77,51.22,89.97,75.95,90.66,53.64,21.36,67.08,40.88,90.4,61.61,57.45,37.82,48.54,110.45,24.75,112.8,67.55,19.44,13.9,64.62,69.29,18.94,47.32,269.46,26.6,91.53,27.7,59.36,93.47,43.02,77.61,187.37,29.27,174.88,38.64,37.72,91.99,66.72,84.63,127.03,66.98,102.53,23.81,30.62,65.98,597.99,106.94,119.21,62.75,74.73,93.28,60.23,26.4,156.4,28.44,26.11,46.81,106.88,37.4,43.78,563.88,88.42,32.06,41.73,69.52,98.47,141.75,37.87,84.59,57.54,79.42,71.23,88.03,743.84,252.57,29.49,92.38,59.17,17.35,48.31,87.05,28.54,40.03,97.58,58.54,124.6,64.23,54.71,58.96,82.29,42.24,64.33,68.17,17.05,73.8,81.37,69.79,48.23,75.75,12.3,126.01,28.32,30.13,84.91,122.1,34.98,71.2,123.22,37.26,85.26,95.56,51.35,68.65,138.96,61.93,68.64,36.65,32.28,92.81,93.23,95.92,30.83,28.0,58.49,36.8,77.2,39.88,54.46,56.18,101.52,32.9,80.37,36.03,145.12,92.13,138.26,22.35,56.48,126.33,39.9,88.52,85.0,69.77,96.42,72.19,42.99,106.72,127.0,55.28,79.44,187.18,9.79,29.99,110.14,96.72,82.5,95.81,39.4,25.69,121.85,13.54,16.94,48.91,63.01,46.41,91.46,63.9,248.4,153.0,59.8,47.42,93.44,50.35,37.4,69.66,58.0,62.78,80.62,25.3,132.74,19.31,9.04,2.01,73.03,86.19,30.31,127.22,42.85,64.12,37.58,83.9,18.26,35.85,50.05,41.45,45.0,26.09,65.37,135.65,52.93,35.74,85.98,63.09,77.88,22.75,84.68,1539.4,36.96,19.46,19.5,86.66,31.85,65.99,19.4,49.06,69.62,103.46,37.97,63.39,16.8,32.2,23.9,64.33,35.03,20.78,66.18,55.89,52.52,41.55,69.33,38.37,69.9,78.48,91.49,51.09,33.98,57.79,48.79,63.88,172.2,86.33,33.54,78.26,316.09,47.85,93.85,174.9,53.37,60.81,58.79,62.87,223.09,26.72,102.54,74.77,39.02,60.81,98.55,70.75,54.63,22.05,64.06,76.44,81.27,51.79,83.69,66.94,178.5,62.76,27.59,64.83,123.4,122.68,48.09,40.02,66.85,46.79,126.55,80.35,47.59,72.0,34.91,149.28,29.33,67.68,73.7,45.73,76.0,68.69,15.14,67.13,69.17,51.62,24.41,43.99,69.51,54.08,46.91,107.25,44.74,56.96,43.25,59.03,12.66,29.08,65.75,468.53,143.26,94.24,31.98,149.09,168.28,166.06,13.29,109.95,243.68,85.84,30.37,28.92,122.78,84.67,34.07,224.86,54.12,77.3,146.37,158.65,25.48,45.68,40.77,102.29,56.68,17.79,45.36,55.5,42.96,81.58,64.83,1117.41,93.61,300.06,79.1,9.63,176.62,296.26,33.75,102.21,248.58,111.32,144.99,99.78,60.98,27.61,87.74,23.22,26.71,447.92,98.72,79.07,29.11,58.0,72.76,35.76,70.78,124.43,42.17,33.91,38.12,78.5,59.69
2016-01-26,63.39,117.29,35.12,57.03,152.78,51.34,38.35,17.05,48.29,58.07,67.0,34.75,47.13,27.14,32.7,81.5,23.83,32.31,39.6,36.49,82.89,53.71,70.29,48.51,103.41,104.31,15.14,7.63,38.44,32.67,23.09,71.53,121.73,17.2,8.23,82.08,21.86,34.33,64.64,201.43,34.35,70.67,8.36,51.87,171.72,75.67,10.55,37.22,60.49,47.37,59.12,181.47,35.33,83.36,93.39,47.73,33.8,16.0,39.12,10.91,38.24,35.03,54.59,39.17,134.59,42.76,112.91,83.09,68.87,31.22,25.04,51.79,34.32,87.26,27.57,29.62,49.22,46.7,25.39,52.19,4.4,54.32,23.24,731.11,8.81,47.6,96.52,17.62,47.56,296.19,163.25,58.05,60.71,150.78,60.91,59.1,61.2,21.26,38.04,67.93,42.92,148.25,82.02,54.06,36.63,43.18,102.26,36.89,39.55,41.13,13.63,81.05,52.73,27.95,20.4,122.02,246.85,94.5,51.29,89.92,75.78,90.37,53.36,20.74,65.77,39.57,90.52,61.31,57.52,37.295,48.34,110.36,23.89,111.17,66.49,18.9,13.64,63.0,69.9,18.81,47.58,262.76,26.22,90.72,27.07,57.92,91.94,43.11,78.35,185.62,28.77,174.73,38.5,37.78,91.41,66.24,84.39,124.63,66.41,102.26,23.6,30.12,65.83,603.45,107.37,118.44,63.1,75.01,92.0,61.04,26.2,151.41,28.48,26.21,45.86,104.66,37.89,43.08,550.0,86.85,32.77,40.24,68.2,99.58,138.53,37.37,85.25,57.09,78.34,69.96,87.0,735.21,250.49,28.47,91.0,59.01,16.99,48.05,86.76,27.41,39.86,96.75,58.0,124.98,63.03,54.62,58.4,81.97,42.16,64.01,67.92,16.78,72.02,81.11,69.58,48.27,74.77,12.14,124.29,28.07,29.54,84.13,122.25,32.81,70.34,122.77,36.66,83.98,94.13,51.05,67.93,141.79,62.51,68.0,36.65,31.86,91.48,92.36,95.91,30.53,27.24,58.71,35.07,78.0,39.06,55.2,56.23,99.93,32.88,80.09,36.14,144.77,92.6,137.1,22.148,55.85,125.4,39.26,87.77,84.47,69.39,95.49,72.0,42.68,106.6,126.37,54.86,79.56,196.71,9.54,29.61,110.49,97.26,81.75,95.34,38.87,25.36,119.6,13.07,17.84,47.75,63.09,46.12,91.42,64.39,245.81,154.63,60.3,47.52,94.36,50.38,36.98,69.34,58.21,63.36,78.8,24.67,133.76,18.94,9.13,2.14,70.15,86.19,29.82,126.13,42.35,64.14,37.12,84.29,17.59,34.2,49.21,41.15,42.88,25.91,64.47,135.21,52.48,35.47,85.29,62.52,77.51,22.9,83.56,1585.0,36.7,18.92,19.48,89.52,31.5,63.46,18.94,48.13,68.91,96.08,38.17,62.97,17.22,31.25,24.13,60.04,35.9,19.97,66.04,55.5,51.7,41.33,69.59,38.22,69.79,78.06,92.84,50.37,33.62,58.69,47.18,63.0,170.66,85.35,33.83,77.72,316.41,47.95,95.99,172.71,49.87,60.47,57.73,60.72,220.88,26.25,102.28,75.87,39.13,59.98,97.0,67.11,51.33,21.86,63.69,76.12,80.45,51.65,83.29,66.3,176.58,61.74,26.52,63.81,119.39,122.35,47.16,38.73,65.75,46.24,124.57,79.94,46.49,72.54,33.97,148.89,29.41,67.03,73.37,45.44,75.66,68.9,14.4,65.85,68.06,51.77,24.26,44.1,68.19,53.52,46.83,108.78,42.69,56.2,43.3,59.01,12.57,28.51,65.72,474.4,140.24,92.7,31.49,149.59,166.95,165.275,13.35,108.51,244.75,83.69,30.25,28.83,118.53,83.93,32.4,223.37,54.05,76.64,144.93,155.12,25.46,45.19,40.2,101.87,55.25,17.92,44.8,55.03,42.48,82.54,65.37,1097.11,94.28,292.46,79.16,9.18,173.9,304.18,33.43,101.79,246.05,110.42,145.44,99.74,61.64,26.5,88.09,22.43,26.43,442.0,97.76,76.91,29.32,59.73,72.18,34.85,70.19,125.0,41.08,33.99,37.07,76.44,59.04
2016-01-27,63.99,118.12,34.97,57.41,154.89,51.03,37.67,17.3,48.34,59.32,67.48,35.41,48.29,27.96,32.85,82.64,24.38,32.94,40.37,36.86,84.68,55.77,71.86,48.85,103.41,104.71,15.15,7.81,39.12,33.26,23.75,72.6,122.46,17.35,8.109,87.5,22.25,35.02,65.22,209.89,34.8,70.02,8.34,51.9,169.96,75.59,10.5,37.92,60.96,47.69,59.91,181.43,35.95,84.45,91.5,47.71,33.71,16.31,39.9,10.89,38.62,34.99,53.78,39.31,134.05,42.78,114.43,84.33,69.7,31.43,25.25,52.01,35.03,87.27,27.62,30.66,50.47,47.35,25.36,52.13,4.06,54.93,23.69,740.3,9.04,48.0,97.81,17.37,48.62,293.75,165.35,58.18,61.81,149.29,62.22,61.3,62.25,21.93,38.55,69.48,43.75,148.94,82.92,54.93,37.31,44.11,105.31,37.4,39.68,42.32,13.81,82.78,53.85,28.45,20.31,123.07,253.02,97.82,52.5,91.01,77.06,91.66,53.43,21.16,66.67,38.51,91.25,62.39,59.1,37.63,48.39,112.85,24.155,112.79,68.33,19.22,14.1,65.09,70.89,19.27,48.35,275.05,26.58,91.84,26.98,58.87,92.41,44.07,79.65,189.5,29.13,177.56,39.57,38.69,91.29,66.68,83.55,121.7,67.02,103.07,23.57,30.36,65.88,601.99,108.06,119.96,64.0,75.03,92.06,61.74,26.71,153.59,28.66,26.5,45.7,102.91,37.39,43.35,546.24,88.15,33.35,41.34,69.09,101.89,134.84,37.75,86.12,58.74,79.13,69.27,86.89,735.89,251.11,29.85,91.84,59.87,17.17,48.5,87.65,27.8,39.95,97.77,58.19,119.9,62.94,55.18,58.43,83.95,42.18,64.29,67.87,17.61,73.6,81.26,69.61,48.99,76.0,12.05,124.11,28.2,28.94,85.16,122.73,32.77,71.42,124.83,36.89,84.24,94.13,50.66,68.59,144.95,63.89,68.1,36.69,31.96,92.43,91.94,95.89,30.71,27.97,58.99,34.92,78.53,39.43,55.37,55.52,96.04,33.5,80.98,36.43,145.63,93.35,135.41,22.3,57.08,125.53,39.34,85.16,85.3,70.21,96.31,72.0,43.11,106.88,130.15,55.26,82.01,186.77,9.64,29.88,111.69,100.49,81.61,95.63,39.08,25.57,120.88,13.2,18.54,48.3,62.8,47.65,92.07,65.34,249.42,158.45,60.9,47.42,96.11,50.41,33.82,70.0,58.55,64.1,79.98,24.72,133.27,20.27,9.23,2.08,71.46,86.02,30.23,128.32,42.59,65.39,37.2,85.23,18.33,34.64,50.36,41.23,43.0,26.73,68.25,137.1,52.64,36.51,85.7,62.22,77.87,23.11,84.58,1636.99,36.81,19.52,19.87,86.53,32.12,65.98,19.22,48.55,69.9,97.96,39.42,63.32,17.01,30.42,23.83,61.5,36.21,20.98,65.62,58.0,53.07,41.55,69.0,38.29,71.01,76.54,94.67,51.55,34.11,59.01,48.03,63.02,172.6,86.17,34.08,78.31,314.28,48.57,96.42,172.05,49.47,62.4,58.13,63.1,223.82,26.66,104.87,78.09,41.01,61.39,97.56,67.0,48.83,22.24,66.32,77.12,80.65,52.07,86.61,65.74,178.83,62.35,26.606,63.69,119.15,123.27,47.49,40.15,65.68,46.53,125.26,80.46,46.36,73.53,34.57,150.05,29.72,65.21,75.87,45.31,76.83,71.48,14.69,67.64,68.8,52.23,24.27,44.69,69.2,54.37,47.7,111.76,45.62,56.59,43.67,58.36,12.68,28.55,66.94,460.63,139.43,92.35,31.96,148.14,169.27,165.99,13.53,108.15,250.25,85.23,29.31,28.79,119.75,85.77,31.73,226.32,54.99,78.08,148.97,152.96,25.71,45.57,39.31,102.71,56.4,17.87,45.65,55.66,42.59,83.38,66.06,1079.58,95.84,299.0,80.21,9.68,173.19,304.24,33.74,102.67,249.14,110.77,151.15,96.61,62.69,27.4,90.06,22.81,27.4,448.5,97.79,77.14,30.02,56.75,71.98,35.25,71.24,123.65,41.57,34.54,37.57,77.21,59.68
2016-01-28,64.45,118.73,40.59,57.89,151.1,51.67,40.76,17.23,46.95,60.08,62.99,35.75,49.06,27.34,33.11,82.32,24.84,34.02,41.2,37.35,84.78,56.61,71.84,48.59,104.08,103.56,15.68,8.08,39.51,33.82,24.12,72.07,121.97,17.5,8.35,87.11,22.31,35.67,64.38,208.49,35.9,69.89,9.34,51.94,154.79,75.96,10.48,37.35,60.32,49.68,60.3,176.4,37.0,85.62,92.67,47.19,33.84,16.53,39.95,11.13,37.48,35.77,52.1,39.43,130.86,43.14,112.29,84.66,69.55,31.86,25.67,51.86,35.17,85.54,28.01,30.62,48.44,47.76,25.53,52.0,4.8,55.23,23.73,751.74,9.22,45.8,98.64,17.28,48.98,291.1,161.31,58.83,61.27,148.55,63.34,63.785,62.56,21.52,39.05,69.79,43.63,146.76,83.4,54.48,37.78,44.16,107.93,37.89,39.91,42.24,13.73,82.75,51.89,31.41,20.27,125.1,248.91,98.93,52.24,90.97,75.5,90.85,53.51,22.13,68.25,40.67,91.2,62.21,59.26,38.12,48.76,119.1,25.8,113.14,67.33,19.44,14.01,69.23,70.7,20.4,47.97,275.77,26.67,90.0,27.09,58.29,91.73,43.68,78.12,187.11,29.27,175.15,39.82,38.1,90.5,66.11,82.9,120.83,70.85,103.79,23.72,32.04,66.43,608.37,110.61,119.03,63.55,75.59,92.63,61.78,23.23,155.01,28.59,23.76,44.85,101.29,37.27,43.76,535.65,88.77,34.76,41.81,69.46,103.01,131.09,38.04,87.17,57.98,79.39,66.88,85.34,738.19,254.89,30.22,90.8,59.3,17.02,46.08,88.79,28.03,38.41,97.92,57.13,117.1,64.17,55.33,62.01,85.75,42.18,64.56,68.24,18.12,74.7,82.0,69.7,50.3,77.35,12.03,128.85,28.22,30.32,85.72,121.26,33.1,72.14,124.64,37.54,84.27,95.27,50.33,69.49,146.16,64.96,69.92,36.36,31.95,93.29,91.77,96.43,30.7,28.06,58.11,37.92,79.4,39.71,54.68,55.01,93.79,34.16,81.0,36.96,146.61,93.01,132.09,22.27,57.52,124.45,39.48,88.14,86.51,71.31,95.2,72.17,44.11,105.755,128.73,55.35,82.78,185.86,9.75,30.02,112.43,102.5,81.87,94.96,39.42,25.91,121.1,13.59,19.25,49.1,66.15,47.69,93.86,68.23,243.35,158.73,60.33,47.64,90.27,50.68,32.82,69.85,59.6,64.03,78.85,24.73,134.0,20.41,9.31,2.16,69.83,86.1,30.82,129.42,42.0,65.59,37.31,85.04,18.16,33.96,50.97,41.54,43.85,26.35,66.78,135.38,52.91,35.68,86.3,62.61,78.88,23.45,84.39,1628.0,35.39,19.0,19.54,83.79,31.21,66.27,19.92,48.77,70.96,101.26,38.64,62.15,17.21,28.88,23.7,61.35,34.24,21.5,65.61,58.2,53.03,41.76,69.25,37.82,70.57,70.01,92.62,51.65,33.31,57.95,47.51,63.21,172.54,85.5,33.99,78.24,315.39,45.51,96.05,167.18,50.39,61.58,57.02,62.1,221.73,26.44,109.2,77.54,42.46,62.46,99.8,79.49,46.49,22.18,71.18,57.82,80.5,52.6,93.49,66.84,175.83,62.75,26.32,64.63,119.86,122.98,47.39,39.61,62.77,46.77,126.0,80.89,44.84,74.25,35.1,148.19,29.47,61.4,76.27,46.54,76.91,70.39,15.17,68.22,68.51,52.19,23.42,46.1,70.48,54.26,47.97,112.79,44.19,56.72,43.4,57.23,12.96,28.5,68.79,436.0,138.8,91.0,33.63,145.18,170.09,166.12,13.45,108.55,248.07,80.89,29.11,29.48,121.41,82.61,32.8,219.38,54.85,79.12,148.14,151.96,26.13,44.95,37.09,105.0,49.9,18.03,46.41,54.09,42.42,83.5,67.11,1058.79,95.98,302.61,78.18,9.82,164.35,301.25,34.14,102.84,226.1,110.9,152.96,93.84,64.67,27.17,88.86,22.49,27.37,446.98,107.2,79.24,30.78,56.92,71.42,34.53,71.15,122.94,41.14,35.23,38.7,78.75,60.06
2016-01-29,65.1,122.29,40.83,57.98,149.4,52.07,40.98,16.83,45.72,59.65,66.67,35.58,49.39,27.2,33.03,79.73,24.91,34.31,40.8,38.24,85.04,56.88,72.25,47.17,104.71,102.76,15.64,8.02,39.31,33.7,24.26,72.34,123.17,17.7,8.5,89.26,22.12,34.97,66.28,207.83,36.21,70.0,9.22,52.21,160.49,74.36,9.99,37.24,61.2,48.43,60.12,181.43,36.71,85.56,94.57,46.82,34.69,16.5,38.62,11.15,36.172,35.71,52.44,39.57,129.07,44.3,111.93,83.37,69.87,32.16,25.35,54.73,35.65,85.55,28.39,30.95,46.94,46.62,25.13,52.31,4.44,56.0,23.4,745.48,9.12,44.05,96.77,17.02,48.4,286.36,160.62,59.68,59.89,149.5,57.86,63.49,62.7,21.66,39.18,70.71,43.35,152.27,83.57,54.74,37.74,44.79,109.04,37.82,40.09,41.54,13.39,86.18,50.84,31.18,21.01,127.06,251.79,97.95,52.82,91.63,74.59,88.0,55.25,22.23,68.51,39.29,91.6,61.91,58.23,39.48,48.79,121.0,27.06,110.22,65.03,19.68,14.04,69.17,67.44,19.68,48.42,268.42,26.69,84.28,26.84,59.78,92.72,43.31,76.63,189.23,28.87,172.46,39.52,38.52,87.55,64.82,84.11,117.89,69.29,105.28,23.33,31.26,64.4,571.98,110.62,117.31,63.26,76.95,93.64,61.83,23.19,158.64,28.29,22.95,43.79,99.22,36.44,44.19,527.59,88.09,36.2,42.08,69.05,98.28,127.78,37.92,87.61,59.45,79.8,66.49,81.45,748.96,256.66,30.38,87.43,58.6,17.19,44.99,88.86,27.46,36.69,100.99,60.0,118.14,61.65,56.02,61.69,84.05,42.86,64.99,69.7,18.11,75.38,84.0,71.48,48.6,76.73,11.83,129.15,28.46,30.57,87.25,123.28,32.88,73.1,126.97,38.0,83.12,94.21,49.8,71.28,148.24,65.05,70.8,37.54,32.42,92.72,93.71,97.87,30.38,29.0,60.22,38.09,79.98,40.75,53.18,55.07,94.79,34.86,81.52,35.64,143.31,95.77,130.22,22.55,57.83,126.87,40.63,88.47,87.04,71.14,94.21,73.99,44.77,109.39,128.8,55.21,83.67,193.08,9.58,30.21,113.15,102.89,77.36,95.45,38.85,25.67,122.77,13.66,19.41,49.29,65.99,45.24,93.55,69.98,250.46,158.18,62.07,48.58,91.95,51.32,33.6,70.5,60.46,64.75,78.58,24.67,134.67,19.45,9.3,2.09,68.13,86.73,30.93,127.18,41.83,67.71,36.53,85.28,17.27,33.56,50.45,42.53,43.04,26.4,66.87,133.99,53.29,35.36,86.87,64.25,78.57,23.46,85.48,1643.8,35.63,19.1,19.81,81.96,32.55,66.99,19.47,49.02,69.45,98.71,39.44,60.75,16.64,29.46,23.24,59.96,33.2,21.88,67.7,56.11,52.34,41.87,68.25,37.52,71.11,68.24,92.85,51.79,33.3,56.7,47.41,62.33,174.94,85.58,33.5,78.55,308.39,42.57,95.78,169.47,49.01,64.5,56.15,59.13,220.97,26.5,112.52,79.77,43.0,62.07,101.94,83.88,45.66,21.81,73.34,63.99,77.5,52.5,91.49,66.97,175.34,64.01,30.0,64.67,118.26,122.95,47.1,37.52,68.82,46.49,126.66,81.62,43.14,73.69,34.85,148.9,29.17,61.28,76.9,49.65,78.84,70.25,15.57,69.64,70.03,53.63,24.11,45.71,69.66,54.27,45.31,108.28,46.15,56.27,43.2,53.42,12.89,28.13,68.0,415.22,137.05,92.72,34.49,143.63,170.3,164.26,13.41,110.18,257.59,78.06,28.6,28.59,119.17,85.61,31.86,212.04,55.3,79.58,147.28,147.68,26.4,43.19,37.26,94.74,45.01,18.06,47.28,54.45,43.0,85.5,64.19,1045.4,93.26,303.37,75.97,10.3,154.81,301.33,34.04,103.37,199.55,113.35,149.87,92.0,63.71,29.02,90.12,23.44,26.79,455.76,108.99,78.1,29.85,56.0,70.43,33.63,71.63,129.44,40.56,35.14,38.89,77.51,59.53
2016-02-01,66.24,125.44,41.38,57.36,151.31,53.38,41.27,17.45,46.65,60.67,66.45,35.86,49.94,27.84,33.8,76.5,25.2,34.28,42.36,38.87,86.42,57.17,72.91,48.11,106.56,105.05,15.77,8.13,39.89,34.25,24.49,73.98,124.92,18.25,8.56,88.48,22.31,35.49,66.4,209.26,36.8,70.54,9.38,53.21,159.8,74.51,11.0,39.18,61.75,48.46,61.57,186.38,38.71,86.65,96.05,47.73,35.15,16.57,40.25,11.25,37.62,36.04,55.15,41.75,131.26,44.73,114.83,87.54,70.94,32.53,25.78,54.88,35.9,88.16,28.4,29.97,48.1,47.16,25.43,52.69,4.5,57.66,23.46,765.0,9.47,44.71,99.83,17.45,49.07,283.4,162.71,60.14,60.32,150.84,58.82,65.0,62.84,21.69,39.87,71.92,43.43,152.9,85.42,55.07,38.05,44.94,109.78,38.79,41.25,41.83,13.72,87.84,51.92,31.71,21.02,127.89,253.14,96.79,53.45,92.04,76.51,87.51,55.19,22.55,70.44,39.86,93.55,63.04,58.45,42.2,49.1,121.79,27.03,111.12,68.2,19.68,14.36,69.3,64.17,20.24,49.91,270.34,26.99,82.32,27.33,60.66,95.28,44.46,76.19,185.58,29.68,170.87,39.18,38.87,89.11,66.73,85.04,121.68,70.43,106.79,23.42,31.93,65.66,578.15,111.2,115.42,64.05,75.03,93.6,62.48,23.34,160.41,29.26,23.31,45.5,100.16,37.37,44.31,539.0,88.87,36.8,42.82,69.34,98.28,131.62,37.85,89.78,61.96,80.85,67.59,88.52,771.26,263.29,29.91,89.24,59.38,17.66,45.79,89.79,27.76,36.17,102.2,61.0,119.64,61.87,56.4,61.97,85.15,42.6,66.93,69.41,18.4,76.23,84.51,70.27,50.04,76.66,11.92,132.3,29.01,31.29,88.19,124.4,34.03,73.32,127.38,38.74,84.17,95.89,50.39,70.62,149.33,66.58,70.16,38.09,32.99,93.71,94.75,98.53,30.34,29.4,60.73,38.24,81.21,41.16,53.41,55.82,96.47,34.77,80.72,36.37,144.11,97.02,133.34,22.6,59.16,129.15,41.52,90.5,88.94,71.25,95.08,75.18,45.4,111.64,131.61,56.56,83.39,195.36,9.65,30.72,116.39,103.61,78.21,95.72,39.13,26.23,123.08,14.05,20.02,50.12,67.54,48.46,94.36,71.12,249.99,158.45,61.81,48.94,93.52,52.3,33.87,70.9,61.83,65.91,78.89,25.44,134.52,18.89,9.675,2.17,70.05,87.53,31.9,129.0,41.58,69.26,37.56,86.08,17.77,34.75,50.91,43.42,43.44,27.33,69.43,135.38,53.92,35.34,87.06,64.97,81.22,24.52,87.05,1643.9,35.79,19.36,19.74,84.13,33.28,68.1,20.03,49.96,72.19,101.24,40.04,60.86,17.89,29.91,23.14,59.56,34.02,21.11,69.85,59.46,54.56,42.62,68.49,38.16,71.89,70.0,93.2,51.87,33.25,56.77,47.74,63.33,178.61,87.35,34.58,78.27,310.29,44.96,98.58,169.64,50.15,66.11,58.48,61.52,223.48,27.23,115.34,80.0,44.78,62.35,103.58,84.8,45.91,22.57,74.41,61.6,80.02,53.17,93.82,68.18,179.92,64.69,27.98,66.29,121.24,126.65,48.32,39.0,68.18,46.58,128.94,83.54,44.73,74.86,35.25,151.0,29.46,61.9,77.37,49.52,80.58,72.05,15.97,70.0,71.2,53.6,24.11,46.57,72.37,56.26,47.71,112.28,47.61,57.38,43.0,54.16,13.1,28.43,69.45,417.19,137.25,91.92,35.65,143.14,157.34,166.01,13.67,112.27,260.32,81.61,29.1,29.04,124.39,87.45,34.79,211.39,55.56,81.21,150.39,144.18,27.24,43.63,39.45,95.77,47.46,18.65,47.77,54.86,43.47,85.62,64.7,1063.0,93.12,311.91,77.89,10.63,156.73,310.05,34.97,104.75,200.0,114.0,151.7,91.79,66.51,29.06,90.4,23.95,27.33,476.12,112.27,79.68,30.2,56.81,74.08,34.6,72.33,133.34,41.65,35.64,39.93,77.59,60.0
2016-02-02,66.97,131.06,40.57,56.73,150.48,52.04,39.5,17.4,47.0,60.31,66.5,34.96,50.61,28.43,34.12,79.46,25.65,33.48,41.86,39.28,84.85,57.15,73.08,47.68,106.54,106.01,15.47,7.78,39.27,33.09,24.5,74.09,125.41,18.52,8.54,89.3,22.2,34.7,66.31,209.5,36.58,72.3,9.32,52.63,158.14,76.03,10.8,38.38,63.02,50.18,60.65,186.93,38.67,84.86,95.39,47.79,35.57,16.32,40.76,10.91,38.02,36.14,53.5,42.52,129.31,45.53,114.95,86.64,72.91,31.8,25.36,54.17,35.85,88.71,27.95,30.37,47.25,47.36,24.85,52.7,4.6,57.74,23.23,768.18,9.36,45.18,97.83,17.63,49.68,278.09,166.13,60.01,60.4,149.99,59.2,63.83,62.65,21.69,39.32,72.57,42.69,153.59,85.59,54.9,35.25,44.75,106.57,38.13,43.0,41.03,13.53,88.11,52.01,30.61,21.23,127.85,254.04,98.21,54.0,95.11,76.39,87.5,55.86,22.3,68.92,39.77,93.91,64.72,59.7,39.83,49.19,118.26,24.88,111.1,67.36,19.6,14.18,67.01,63.87,20.17,49.12,267.74,27.16,84.18,26.85,60.66,95.31,43.67,77.0,188.09,28.4,172.43,39.3,39.58,88.6,66.95,84.55,119.13,69.48,105.5,23.23,31.21,65.1,570.0,114.61,115.93,64.38,75.04,92.48,61.04,23.72,157.0,29.0,24.03,44.96,101.44,37.18,43.5,539.42,87.06,37.32,42.12,68.15,98.43,129.17,34.5,88.4,61.0,79.82,67.65,87.68,800.5,265.75,30.1,86.2,60.0,17.385,45.11,88.51,27.26,38.0,101.8,61.66,119.69,60.03,56.5,61.28,82.71,42.7,65.62,70.16,18.29,75.6,85.15,69.24,49.61,74.19,11.95,132.68,28.27,30.73,88.47,123.67,34.08,73.04,128.45,39.75,82.71,96.15,50.27,71.1,147.59,66.09,69.13,38.33,32.7,94.97,94.94,98.65,29.6,29.7,60.44,37.61,80.09,41.13,54.33,55.48,95.42,33.52,82.73,37.5,144.92,95.3,133.2,22.61,57.88,131.06,41.49,91.46,89.55,72.71,94.0,76.09,45.0,112.05,131.57,56.12,83.0,195.16,9.83,30.45,117.12,103.3,77.66,96.2,38.45,25.94,124.05,13.74,20.25,49.26,64.34,47.84,93.12,69.32,253.36,160.0,62.01,49.55,94.22,52.12,32.7,73.26,64.1,67.3,79.09,25.92,134.5,18.85,9.33,2.11,69.99,86.49,31.51,131.07,44.14,68.67,37.46,84.01,17.68,34.67,50.26,44.17,43.05,27.09,69.0,137.7,53.17,36.28,86.17,65.64,80.88,23.96,87.81,1642.8,35.87,19.34,19.95,84.87,33.1,66.85,19.81,49.86,70.33,100.69,40.03,60.22,17.22,30.91,22.82,59.0,35.15,20.51,70.29,58.9,56.1,42.23,68.99,38.04,73.18,71.85,93.68,52.17,33.34,57.0,47.39,63.07,178.81,87.64,34.34,78.9,314.48,45.25,96.87,173.82,50.28,65.65,58.77,62.83,226.33,27.11,114.76,79.49,44.0,60.97,101.71,84.92,45.09,22.23,70.71,61.48,80.11,53.19,88.42,66.94,179.74,65.13,28.19,65.79,120.51,125.65,47.64,38.83,69.07,46.09,127.52,84.22,45.19,76.26,35.21,152.09,29.99,62.83,75.97,48.47,81.87,73.16,14.76,71.41,71.6,54.27,22.73,45.47,79.09,56.29,48.27,113.5,48.85,56.83,42.43,53.64,12.55,28.23,70.55,412.68,136.5,90.59,36.53,142.83,161.9,166.69,13.7,112.05,263.6,78.9,29.17,29.45,121.95,86.01,34.14,214.23,56.73,82.08,152.66,141.64,26.9,43.53,39.25,93.4,47.71,18.51,47.56,55.32,43.48,86.23,65.73,1070.0,91.56,305.82,77.61,10.57,157.0,307.93,34.75,105.27,203.73,113.25,154.38,95.54,65.54,29.71,89.62,23.63,27.22,471.0,114.8,78.58,30.93,56.12,73.5,34.24,71.15,135.01,41.07,35.08,47.11,75.23,59.95
2016-02-03,68.69,132.79,40.27,58.4,150.5,51.94,39.73,17.42,49.9,63.8,65.62,34.55,50.25,28.29,34.25,78.43,25.41,33.65,40.65,39.78,85.12,57.46,72.86,47.71,106.9,104.49,15.55,7.7,38.93,32.72,24.48,74.75,126.02,18.55,8.46,89.76,21.98,35.62,66.59,212.0,36.51,71.38,9.02,52.6,156.49,77.35,10.67,37.65,62.88,49.33,59.88,188.61,38.98,84.07,96.42,48.48,36.47,16.41,40.91,10.83,36.85,36.12,53.54,43.31,127.94,46.77,114.37,88.11,73.15,31.72,24.43,53.25,35.56,88.91,28.08,30.66,45.61,47.04,24.33,52.47,4.43,57.28,23.09,768.59,9.41,43.6,99.33,18.0,50.47,282.0,167.54,60.29,59.16,149.28,59.36,63.66,62.35,22.14,39.54,72.59,42.01,152.53,86.52,56.7,37.48,44.71,105.93,38.84,41.57,40.62,13.33,87.62,51.38,31.41,21.38,128.74,256.24,99.91,53.3,95.23,76.67,85.77,56.4,21.76,68.46,39.87,95.0,64.06,59.86,39.5,49.46,123.66,25.35,109.88,65.44,19.44,14.16,68.61,61.77,20.82,48.88,267.58,27.97,84.91,26.37,60.88,95.0,42.06,75.8,187.21,28.03,169.76,39.6,39.31,88.34,66.48,85.36,118.45,66.86,106.35,22.87,28.09,64.33,553.5,112.66,115.81,65.21,74.54,91.76,60.63,23.45,152.5,28.28,24.08,43.25,98.85,37.27,42.82,543.48,86.18,37.35,38.38,67.8,98.73,127.62,35.25,89.43,62.54,79.97,65.42,86.56,786.28,265.56,29.77,84.89,59.6,17.24,45.2,89.84,27.59,38.23,101.45,62.38,118.8,59.2,56.41,61.47,82.39,42.8,65.84,71.26,18.27,75.0,86.67,70.05,51.95,75.53,11.67,134.09,28.39,30.75,89.43,123.99,34.7,72.47,129.17,40.29,82.11,95.57,49.62,71.93,149.36,64.65,66.88,38.88,32.82,94.29,95.95,98.87,29.91,30.24,60.5,37.59,80.48,41.69,54.0,55.38,95.0,32.56,83.12,38.23,147.0,96.31,132.04,22.34,57.37,129.81,40.99,91.84,89.2,73.86,94.1,76.84,46.2,114.13,130.89,55.94,83.36,195.23,9.81,29.72,117.76,103.65,76.46,95.74,38.0,25.36,124.36,13.28,20.31,48.45,66.59,47.77,93.79,70.03,248.62,155.84,62.91,49.41,94.42,50.15,32.1,71.99,63.06,67.31,78.43,25.48,133.84,19.02,9.04,2.04,68.3,87.06,31.56,132.99,45.73,69.0,37.8,77.53,17.39,33.53,49.03,45.25,42.08,27.22,69.03,137.75,53.2,35.86,85.99,66.84,80.79,24.62,87.1,1630.35,36.12,19.31,19.86,84.89,32.74,66.4,19.32,48.04,71.21,95.72,39.55,58.52,16.33,31.2,22.48,58.78,35.14,20.27,71.68,58.2,55.55,42.55,69.77,37.53,72.84,69.54,92.82,52.66,33.36,57.54,47.36,63.32,177.79,87.79,33.57,76.58,312.42,43.51,96.8,173.57,50.44,67.76,57.01,61.01,221.9,26.94,115.78,79.95,42.41,60.53,101.82,82.17,45.1,21.75,72.42,57.57,80.74,52.93,90.84,67.32,180.5,65.83,27.15,63.7,118.24,125.92,46.86,37.38,67.8,45.98,126.34,86.24,43.97,76.4,35.01,150.97,30.1,62.33,76.37,47.92,82.54,72.03,14.87,70.74,71.33,55.47,23.74,45.23,76.06,56.78,46.63,112.91,47.25,57.26,41.84,54.53,12.26,27.04,72.58,413.05,136.86,91.54,36.87,145.02,160.81,165.0,13.66,113.18,261.27,73.33,28.86,28.99,122.89,86.49,33.95,209.38,57.41,82.01,152.02,132.5,26.81,42.89,37.24,90.28,46.48,18.5,47.36,55.11,43.87,86.31,64.85,1070.25,91.5,301.7,82.62,10.84,147.16,313.5,34.49,104.45,196.23,113.38,151.58,92.41,62.47,30.18,91.53,22.44,26.54,459.7,115.27,79.51,30.34,54.97,73.76,33.81,70.84,137.25,39.8,35.3,49.84,75.39,59.39
2016-02-04,69.645,133.29,43.38,57.14,150.5,51.21,42.06,17.34,49.46,63.43,66.62,34.27,50.37,27.82,33.99,76.89,26.17,34.32,40.11,37.57,84.86,58.25,72.51,46.71,107.46,103.12,15.31,7.76,39.28,32.29,23.87,74.58,123.65,19.06,8.48,89.57,22.03,35.65,66.81,212.5,36.3,67.84,9.55,53.34,151.74,76.1,10.71,36.21,62.02,49.28,59.21,188.8,40.33,83.26,97.69,47.77,36.37,16.37,41.85,10.74,36.44,36.73,53.68,43.16,126.36,47.16,112.67,92.26,70.87,31.7,24.15,52.1,35.7,87.82,26.69,30.39,45.5,49.8,24.31,52.92,5.1,57.35,23.17,748.04,9.7,44.62,103.35,17.25,43.5,275.81,166.56,60.475,59.28,145.0,61.43,63.0,61.65,21.76,38.75,71.97,39.18,149.5,84.85,58.18,38.49,44.37,105.9,37.22,40.72,40.25,13.59,86.9,51.94,32.51,21.45,128.61,252.71,99.0,52.71,95.33,75.4,85.91,56.09,21.74,68.41,39.91,95.02,63.28,59.22,41.5,49.04,129.33,26.77,108.15,61.23,19.19,14.07,70.67,59.44,21.07,48.69,270.16,27.64,86.02,25.58,59.41,95.78,42.44,75.27,187.96,27.57,169.79,39.36,39.37,80.51,65.05,85.78,118.39,68.18,106.76,22.52,28.04,63.92,525.0,103.27,114.65,65.68,76.03,90.32,60.09,23.49,152.3,28.24,23.9,44.41,95.97,37.15,40.62,543.65,85.44,35.9,39.01,66.42,97.67,126.0,35.51,89.28,61.73,79.12,65.68,86.24,744.59,263.92,30.2,84.81,59.46,17.31,45.29,87.68,25.68,37.78,101.69,63.15,121.12,59.62,56.18,63.6,84.59,42.52,65.9,71.43,18.36,75.07,86.94,70.07,52.47,78.58,11.37,133.76,28.65,32.39,88.72,125.08,34.23,72.02,129.58,39.72,81.77,95.05,49.7,73.12,152.42,64.7,67.52,39.13,33.54,95.33,95.48,98.68,29.49,31.66,59.35,38.5,80.85,42.19,54.08,54.17,95.86,33.44,82.03,38.33,140.47,96.7,130.6,22.35,57.06,131.56,40.94,89.96,91.18,70.67,94.87,78.27,46.32,113.92,130.69,55.38,83.45,201.37,9.6,29.14,119.99,103.61,75.95,91.4,37.06,25.14,121.04,12.89,22.89,47.4,68.9,47.92,95.31,71.53,256.65,154.61,63.89,48.5,95.11,50.46,32.3,72.02,61.4,65.76,76.76,25.39,136.86,18.53,9.25,2.06,67.11,87.45,31.24,132.85,46.93,69.66,38.38,77.72,17.24,32.02,49.78,45.78,41.42,27.09,67.85,137.57,52.5,36.16,86.09,67.69,79.44,27.57,83.0,1612.22,36.24,20.91,19.94,89.52,32.37,66.67,18.63,50.35,71.47,94.36,38.82,58.23,16.4,30.11,22.4,61.87,35.16,20.04,71.59,59.4,54.04,42.75,68.97,37.53,72.7,68.92,90.47,53.64,33.3,57.28,47.77,63.08,180.02,87.11,36.0,76.06,308.18,42.24,96.0,178.22,49.29,67.01,57.09,59.73,222.68,26.41,114.02,80.39,42.4,60.45,100.31,80.09,43.97,21.55,75.48,58.85,80.6,54.28,92.71,65.05,173.55,65.31,26.38,64.01,121.09,125.56,44.46,37.34,66.58,45.85,126.09,87.0,43.78,74.35,36.27,151.53,28.94,63.46,75.04,49.94,79.8,72.27,15.7,71.32,71.36,55.63,24.78,45.52,78.17,54.44,47.18,111.21,47.92,57.19,41.15,56.74,12.22,26.26,70.2,417.17,134.62,93.49,36.66,145.42,162.04,161.27,13.31,112.26,253.24,73.03,28.54,28.36,122.04,84.53,33.13,209.2,57.21,79.34,150.75,143.81,27.13,42.56,37.39,88.65,48.09,18.61,46.68,55.79,43.91,86.5,61.01,1044.79,91.19,302.25,83.19,11.24,146.26,312.17,34.23,102.22,193.48,114.08,147.46,89.5,62.49,30.57,87.89,24.0,27.38,460.0,111.8,79.09,30.06,53.82,74.1,33.14,68.95,131.4,36.98,36.06,51.1,75.82,59.32
2016-02-05,68.55,136.16,38.7,57.97,148.93,51.4,40.3,17.42,48.98,64.12,67.35,35.0,50.32,28.28,34.62,76.26,26.45,35.1,41.02,39.06,86.03,59.46,72.58,42.46,108.89,103.27,15.56,7.95,40.2,33.55,23.82,75.9,120.89,19.04,8.69,91.0,21.8,36.18,66.49,210.34,36.5,68.08,9.07,54.19,152.04,76.04,11.15,37.31,59.76,47.43,60.2,186.72,40.14,85.19,100.92,47.97,36.32,16.53,41.63,11.02,37.27,36.59,55.11,43.88,127.0,46.18,114.07,93.9,71.31,32.17,25.09,51.94,36.13,85.5,27.54,30.66,44.85,48.22,24.94,52.93,5.57,59.24,23.51,748.61,9.54,45.45,104.97,17.25,41.03,270.83,167.97,62.09,60.68,143.27,60.82,63.92,61.2,22.57,40.77,72.31,39.26,147.29,85.0,58.21,40.1,45.79,108.2,37.26,41.2,40.29,14.12,85.92,52.21,30.94,21.07,126.16,245.75,99.04,56.0,95.87,75.79,85.72,56.02,22.15,69.4,41.2,95.81,64.63,59.36,43.29,49.27,123.21,25.85,107.94,61.0,20.74,14.37,67.68,58.37,20.79,49.01,271.1,27.81,86.68,25.28,58.1,96.09,42.64,75.94,186.23,27.97,169.98,39.24,38.69,84.0,65.13,87.39,117.33,66.45,107.49,23.12,28.27,63.84,529.28,88.53,116.03,66.96,76.94,90.7,59.2,23.45,157.57,28.02,23.63,44.15,99.07,37.26,39.95,551.0,88.5,35.92,37.99,67.02,96.06,126.63,36.34,87.76,60.28,78.83,63.11,86.04,725.5,244.63,30.34,85.29,59.85,17.55,46.25,89.19,26.23,38.23,102.66,62.17,123.63,59.75,55.44,65.67,83.94,42.93,65.99,71.21,18.75,78.4,86.18,70.34,53.97,79.4,11.52,135.21,29.15,31.99,88.89,127.22,35.06,72.16,128.75,39.0,86.9,94.55,48.6,72.05,153.2,63.99,69.13,38.92,33.08,95.31,94.98,97.64,29.02,32.46,59.8,34.02,80.58,42.09,54.72,53.91,96.52,34.28,82.8,38.1,137.5,95.78,133.66,23.04,58.58,124.95,40.08,87.33,96.08,70.04,95.32,78.17,46.64,113.3,133.25,55.12,86.02,208.0,9.83,29.58,121.28,102.66,74.16,88.13,35.9,25.34,120.65,13.32,22.61,48.35,66.4,50.0,98.63,69.74,259.55,144.72,63.19,48.02,95.62,51.2,32.18,75.21,60.73,66.86,76.59,25.6,139.71,18.51,9.4,2.06,68.48,89.2,31.86,131.17,47.48,69.58,38.49,78.84,18.03,32.0,51.3,45.07,43.23,26.84,67.7,136.34,52.46,36.77,88.04,67.21,79.75,28.36,83.57,1617.71,35.68,20.31,19.86,92.0,31.99,66.95,18.76,50.43,72.91,94.41,39.05,59.53,16.61,30.49,22.85,62.05,35.02,20.26,70.76,60.81,60.03,42.65,68.29,37.48,72.0,70.68,87.31,51.38,34.0,58.12,47.69,64.28,182.06,88.11,35.06,76.57,313.68,42.17,96.29,160.2,50.44,67.1,57.65,60.03,227.09,26.35,111.42,81.0,42.48,60.55,101.1,80.48,44.17,21.21,71.46,54.12,82.0,52.5,88.91,66.83,168.75,63.61,26.52,61.5,120.38,125.73,46.6,37.71,64.87,43.94,127.28,86.49,44.14,72.85,37.47,150.68,28.67,62.7,74.28,50.86,78.7,74.64,15.43,75.53,70.86,54.41,25.1,46.56,76.77,54.21,48.41,111.22,48.89,58.36,41.32,56.25,11.43,26.34,70.13,416.1,127.25,89.78,37.16,142.76,165.82,164.94,13.69,113.0,250.88,72.61,28.59,29.71,124.24,83.38,34.21,209.86,57.06,76.65,150.01,146.2,27.02,43.9,36.6,91.06,47.76,18.73,46.49,56.36,44.13,85.72,61.73,1063.1,91.76,312.03,83.46,11.6,142.66,306.91,34.93,102.42,196.9,115.12,147.54,88.23,63.31,31.34,85.67,24.7,27.7,469.85,109.51,79.63,25.62,54.55,73.56,31.77,68.69,137.0,34.54,37.06,51.38,78.84,59.83
2016-02-08,68.98,134.01,37.23,57.39,143.5,49.25,38.2,16.56,45.58,62.73,64.8,33.69,50.6,27.98,34.63,75.96,26.28,33.9,39.14,39.97,84.53,59.15,70.24,42.65,105.04,99.12,15.05,7.67,39.67,33.22,23.39,74.36,114.93,18.87,8.5,89.33,20.78,35.29,64.6,209.33,33.87,65.38,8.26,53.98,153.23,73.53,10.71,36.05,56.1,48.15,59.05,184.74,39.87,82.45,100.09,46.33,35.77,15.98,40.21,10.68,35.13,36.6,53.53,42.75,121.75,46.62,110.5,91.99,67.47,31.57,23.76,49.55,35.13,77.4,27.31,30.39,42.3,45.65,23.75,52.23,5.46,59.76,22.63,716.55,9.68,43.51,104.52,16.45,41.51,270.6,164.13,62.87,59.59,142.74,59.82,62.33,58.7,22.33,39.98,68.71,39.14,135.54,82.8,59.16,40.13,45.24,105.63,36.48,40.34,38.95,14.04,85.54,50.81,28.58,21.07,124.79,235.0,96.09,57.1,94.39,74.22,83.77,57.16,21.25,67.98,40.25,93.77,63.09,58.7,42.92,48.96,117.19,24.06,105.07,56.41,19.44,14.03,65.66,54.39,20.31,47.85,260.45,27.57,84.19,24.12,53.09,90.91,41.77,73.28,184.55,26.42,166.13,39.02,36.95,83.89,63.28,89.81,114.34,63.35,105.18,22.12,27.83,61.54,486.47,85.1,114.99,67.68,74.51,88.41,54.98,22.86,153.83,26.03,22.54,42.51,91.37,35.61,38.32,530.56,81.68,34.68,37.27,64.81,94.95,122.1,36.03,88.41,58.65,77.34,56.87,81.44,687.68,233.6,29.2,81.33,57.74,17.38,45.65,89.28,24.6,37.19,101.0,62.23,120.67,59.04,55.75,65.42,81.76,42.17,65.65,72.14,18.07,77.6,86.84,70.13,54.0,79.3,11.39,132.32,28.22,30.74,87.45,126.0,34.5,71.28,127.86,37.08,84.6,92.22,48.93,72.37,151.63,62.22,69.35,39.51,33.51,92.21,94.87,97.14,28.68,32.76,59.11,31.95,80.29,42.89,53.24,52.51,93.13,34.4,80.4,37.08,134.24,95.5,132.12,22.64,56.69,123.6,39.11,86.0,97.91,69.18,92.56,79.25,46.45,113.64,130.28,55.13,83.99,206.84,9.76,28.74,117.96,100.31,73.55,84.61,34.9,23.92,114.05,12.67,25.02,47.11,63.68,49.69,97.62,68.03,253.28,138.13,63.34,48.18,92.01,49.26,31.84,74.48,58.08,66.5,74.18,23.86,136.73,14.93,9.34,1.97,63.36,92.27,30.75,126.05,46.46,69.47,37.93,74.8,17.4,30.28,50.23,45.12,42.81,26.09,64.44,133.57,52.04,34.93,87.34,67.89,77.98,27.62,81.71,1565.0,35.48,19.76,19.57,80.59,30.77,62.31,17.7,50.65,72.04,89.24,35.42,56.87,15.51,25.79,22.0,58.28,32.95,19.52,70.27,56.36,59.0,41.14,65.86,35.82,71.04,69.5,85.41,50.91,32.79,56.89,45.43,61.09,178.34,83.52,32.89,76.16,308.43,38.51,91.87,165.73,50.01,65.0,54.81,55.78,217.97,24.82,105.55,81.08,41.32,58.03,98.43,76.36,41.84,19.55,66.04,50.92,79.19,50.86,85.0,64.51,156.76,63.72,24.72,58.57,121.52,126.27,44.77,36.08,60.81,44.33,125.7,85.58,41.31,71.26,36.53,149.08,28.28,63.0,72.09,49.08,78.89,74.37,14.94,74.62,67.99,54.14,24.3,45.73,74.1,52.67,45.9,107.04,45.37,54.89,40.4,52.58,10.97,24.98,68.36,380.7,121.65,85.23,34.0,142.27,161.75,157.73,13.0,111.63,238.91,68.0,26.84,29.0,121.74,80.12,33.2,205.98,55.71,78.62,147.05,138.02,26.76,43.75,36.61,87.36,47.14,18.28,45.14,56.32,43.27,83.3,58.48,996.49,89.79,301.36,81.14,11.42,135.01,285.88,34.45,96.65,181.44,113.3,142.77,80.57,61.08,30.91,81.2,24.5,26.84,454.69,100.41,78.33,24.49,53.4,69.95,29.69,67.37,126.99,31.85,36.22,51.46,78.31,55.38
2016-02-09,68.42,129.28,38.28,57.51,141.02,48.84,36.53,15.98,42.45,60.73,63.6,32.6,50.06,28.48,34.2,75.39,25.31,31.61,36.93,39.83,83.27,58.89,69.72,40.91,102.91,92.65,14.54,7.37,38.84,31.64,23.87,74.02,110.94,18.43,8.29,89.48,20.04,34.96,63.63,213.12,35.9,63.07,7.63,54.64,149.94,71.27,10.01,33.92,54.5,50.22,57.08,184.17,38.92,80.48,99.85,46.38,35.97,15.55,38.98,10.37,34.38,36.7,52.16,42.78,121.03,45.93,109.365,88.2,67.53,30.79,21.89,49.02,35.13,74.76,25.32,30.47,40.77,43.3,22.89,52.23,5.12,60.34,22.6,692.0,9.33,43.65,101.77,16.42,42.34,263.08,157.04,62.81,59.0,146.24,57.74,60.04,58.7,22.07,39.03,66.69,38.61,134.08,81.99,58.4,39.61,45.76,104.44,35.35,39.96,37.79,13.56,87.165,49.72,27.74,20.8,125.39,228.12,94.93,59.65,96.35,73.23,80.18,57.23,20.33,65.2,38.71,91.34,62.14,56.7,43.25,48.49,113.01,22.73,100.06,54.37,19.06,14.15,67.21,56.26,20.42,47.0,246.54,26.67,84.2,23.09,53.19,90.08,40.94,71.95,179.95,25.03,162.17,37.27,35.24,82.69,61.83,88.0,112.53,62.49,103.95,20.67,28.24,59.78,478.01,84.75,110.32,68.78,71.03,84.56,53.27,22.19,145.52,24.92,21.77,40.59,90.25,34.21,36.27,507.14,78.45,33.96,36.21,62.15,91.61,117.05,34.95,89.05,59.97,75.04,53.61,78.87,692.95,238.37,27.72,79.26,57.65,17.05,44.51,89.29,22.9,36.96,100.24,62.4,117.98,60.27,55.75,63.9,85.08,42.26,65.48,73.12,17.84,75.9,86.03,69.49,53.76,79.98,11.47,130.47,27.75,30.35,89.05,126.12,34.01,70.63,128.33,36.26,82.58,87.02,48.69,69.97,152.95,61.49,69.7,39.24,33.04,88.62,94.75,96.69,28.47,32.11,60.15,33.22,81.83,41.81,52.26,51.41,94.29,33.44,80.95,35.88,129.58,94.0,124.49,22.56,55.29,126.26,38.83,83.63,98.41,69.8,90.15,78.75,46.5,114.01,129.25,55.3,84.53,207.99,9.29,28.49,115.21,101.31,73.43,80.83,32.61,24.62,115.54,11.99,25.56,45.61,65.13,49.22,96.01,68.91,246.19,134.36,63.0,48.58,89.57,50.53,31.9,75.1,56.19,65.49,72.55,23.17,133.34,11.26,8.97,1.89,62.22,92.47,30.41,124.44,45.71,69.73,37.86,72.2,17.4,30.41,50.49,44.68,41.45,25.24,61.66,132.4,50.69,33.59,86.26,67.8,75.61,26.49,79.0,1536.0,32.15,19.35,19.14,70.5,30.51,58.81,16.5,50.72,71.29,82.4,33.75,55.11,14.62,23.66,21.18,53.55,32.43,18.93,67.74,53.44,59.11,40.76,66.48,31.48,69.74,68.97,83.79,48.22,33.2,55.99,41.49,61.05,184.95,81.29,33.27,73.86,294.97,37.68,85.35,160.44,49.11,58.22,51.62,52.52,197.0,24.63,103.69,77.68,39.81,55.76,94.61,71.45,41.14,19.11,68.77,46.6,80.38,51.31,85.94,62.55,152.0,64.14,23.7,60.04,115.77,123.2,44.63,34.93,58.24,44.37,125.15,86.63,40.35,68.86,34.55,146.12,28.13,59.88,70.6,50.56,80.89,74.53,14.6,76.49,65.08,54.0,21.81,45.0,71.16,52.94,44.97,103.29,41.81,53.64,39.58,52.31,10.37,24.28,65.94,357.0,116.58,80.25,32.8,136.91,160.6,149.72,12.37,106.82,231.9,64.99,27.43,28.67,113.08,79.43,31.67,196.83,56.0,75.21,145.41,136.97,26.41,42.39,35.65,82.45,45.51,17.43,44.17,52.95,43.07,80.75,56.02,958.43,87.59,287.0,75.64,10.9,133.58,268.69,34.03,94.01,181.21,111.17,141.15,81.75,57.47,29.97,77.64,23.09,25.51,441.9,97.14,75.77,23.46,51.71,66.39,28.41,65.68,119.83,30.29,35.97,48.32,75.0,53.33
2016-02-10,68.35,132.85,39.22,58.3,145.21,49.71,35.41,16.19,43.27,63.33,65.24,34.06,50.19,27.94,34.52,76.84,25.06,32.78,38.5,39.75,85.72,58.26,72.39,42.85,107.62,93.94,14.98,7.7,39.94,32.5,23.52,72.26,114.5,18.59,8.52,90.63,20.51,35.69,64.19,216.01,36.54,64.45,7.23,55.56,150.94,73.86,10.08,34.55,56.54,50.62,58.55,187.74,38.99,82.74,99.62,47.24,36.02,16.22,45.54,10.74,35.67,36.65,53.87,42.95,126.07,46.03,111.33,91.85,70.25,31.67,23.38,49.89,35.42,74.99,26.37,31.03,43.44,41.47,23.6,53.49,4.95,61.52,23.13,702.57,9.5,44.0,104.31,16.99,41.49,274.05,161.17,63.27,61.63,149.37,58.62,62.92,59.0,22.26,40.2,66.92,38.23,137.55,83.85,58.11,39.44,46.06,108.22,35.67,41.42,38.89,13.9,88.79,51.21,27.88,21.2,127.35,235.32,97.49,61.07,97.54,75.05,80.8,56.63,20.94,67.46,39.03,93.12,62.49,57.22,43.77,49.35,109.58,22.2,102.73,54.53,18.95,14.61,65.45,59.34,19.49,47.37,253.35,27.15,88.69,24.36,55.28,91.28,41.33,71.86,177.81,25.89,162.2,37.6,35.68,85.44,62.75,90.41,116.73,63.01,106.35,21.12,27.41,60.71,491.76,84.33,109.81,69.79,73.5,85.85,53.6,22.27,150.0,25.65,22.19,46.99,93.36,35.63,37.62,510.04,80.92,34.23,37.69,64.76,92.09,120.51,36.38,93.03,61.93,72.8,58.5,83.06,711.79,243.8,28.38,79.98,57.89,16.24,46.02,90.25,23.45,37.58,103.14,62.06,118.16,61.25,57.56,64.27,82.77,43.34,66.39,73.49,18.51,78.57,85.63,70.18,54.6,79.77,11.46,132.53,28.37,29.48,89.82,125.0,35.27,71.79,131.11,36.74,84.5,91.2,49.51,70.57,154.43,62.72,72.17,39.5,33.18,91.67,95.44,98.21,29.33,31.0,60.61,33.29,82.91,42.2,53.0,52.73,95.92,33.61,81.82,36.48,136.22,96.32,128.63,24.02,56.57,129.09,39.77,84.53,100.58,70.43,88.0,77.61,46.43,112.62,130.65,56.16,86.74,211.05,9.24,28.88,116.81,102.05,73.73,82.66,34.14,25.68,118.02,12.42,23.81,46.88,65.13,49.77,97.58,67.77,254.0,136.83,63.2,48.9,90.94,51.33,32.06,78.02,57.08,66.19,75.66,23.29,138.22,11.56,8.84,1.92,66.84,93.04,24.27,128.73,46.76,70.91,37.93,73.26,17.73,31.17,49.91,44.92,42.92,25.04,64.13,135.37,51.41,33.54,87.36,68.13,77.04,27.36,81.33,1557.99,28.34,19.97,19.03,71.98,31.19,58.22,16.75,51.55,71.71,84.99,34.31,56.93,14.55,27.33,21.4,53.53,33.21,19.63,69.05,55.25,61.57,41.32,67.02,35.36,71.31,73.57,85.5,50.6,34.21,57.56,41.15,61.11,188.0,83.64,34.79,72.48,309.67,39.78,86.3,165.08,49.5,59.21,52.8,55.5,189.18,24.41,107.42,77.45,39.96,57.85,96.26,73.01,42.05,19.48,67.28,48.67,82.29,52.71,85.49,65.51,152.79,66.0,24.05,62.43,114.98,126.14,45.9,36.57,58.68,45.61,128.44,88.69,42.63,69.78,34.83,146.0,28.12,55.98,72.07,46.67,41.41,75.39,14.56,79.03,66.0,54.48,20.67,44.84,71.74,54.47,47.41,106.44,40.48,54.22,40.17,54.11,10.52,25.19,66.77,370.02,120.65,82.26,33.62,138.91,161.22,155.48,12.77,111.81,240.01,68.67,28.94,29.77,130.76,82.35,31.63,196.64,56.5,75.81,150.53,138.2,26.59,43.0,35.28,82.05,45.16,17.55,45.4,50.24,43.88,82.45,58.18,1004.92,88.6,299.29,77.43,10.77,140.49,268.05,34.41,94.43,178.94,106.73,141.13,89.0,59.01,29.73,79.49,24.19,24.63,443.99,101.55,76.02,24.31,52.75,69.14,29.06,68.19,122.49,31.62,36.84,51.0,75.59,54.81
2016-02-11,68.43,128.56,38.44,55.61,140.76,48.37,34.35,15.72,42.8,61.96,64.45,32.31,49.6,26.97,33.52,76.7,26.1,30.87,36.0,39.45,83.61,55.92,72.5,43.18,104.02,93.96,14.22,7.25,38.0,31.54,22.23,69.81,113.08,18.1,8.18,88.93,20.08,34.41,62.54,211.67,35.38,63.08,6.92,54.33,150.71,73.21,9.72,34.02,56.46,48.58,55.22,185.12,38.51,79.2,94.54,46.09,36.1,16.05,42.62,10.17,34.97,36.06,51.44,42.47,122.86,46.16,111.32,91.42,68.17,30.4,21.67,48.68,34.59,74.04,24.96,30.41,42.71,42.12,21.89,52.57,4.81,60.26,24.09,698.99,9.38,42.51,101.74,16.6,39.72,272.56,158.91,61.95,60.5,147.13,57.09,59.71,57.08,21.96,38.45,65.75,36.86,137.33,82.0,54.86,38.4,44.43,102.42,34.91,41.0,38.29,13.83,89.47,43.95,27.5,21.35,126.25,234.72,96.48,61.11,94.6,75.83,79.86,56.58,20.1,64.71,38.36,90.93,60.56,56.88,42.11,48.76,107.33,21.02,104.3,53.83,18.61,13.89,63.62,57.96,19.27,46.06,246.31,26.36,86.5,23.98,53.89,88.17,39.68,70.71,178.53,25.4,161.77,36.67,35.51,84.25,62.5,86.78,115.19,61.35,103.73,19.98,26.17,61.26,491.17,83.63,109.58,68.0,72.41,84.65,52.22,21.93,143.41,24.78,21.49,47.13,100.1,35.12,35.55,514.33,78.23,33.18,37.15,60.69,91.83,119.8,34.78,88.36,59.33,64.8,57.19,80.15,696.34,230.65,26.914,77.06,56.2,16.59,44.14,88.15,23.88,36.44,100.41,62.53,113.18,59.88,57.07,60.91,81.6,42.03,64.71,73.39,17.81,75.97,85.93,69.95,52.59,78.34,11.17,130.59,27.75,28.7,89.02,118.78,33.85,72.5,127.95,36.42,82.77,91.83,48.81,71.0,149.91,60.19,71.73,39.29,33.31,89.35,96.4,96.39,29.01,30.78,59.57,31.23,80.39,42.46,51.22,51.05,93.79,32.27,79.38,36.29,135.63,94.06,127.96,23.65,53.9,127.15,39.65,82.77,95.05,68.32,87.0,77.77,44.85,113.03,125.54,55.4,85.31,200.55,9.14,27.83,100.5,100.46,72.2,82.81,33.01,25.06,115.74,11.46,26.0,44.93,64.39,47.87,92.93,66.3,247.76,138.54,63.19,48.19,89.76,49.85,31.72,75.73,56.1,65.02,74.85,22.35,131.45,12.08,8.72,1.82,65.86,91.31,27.23,130.53,45.16,69.78,37.29,71.72,17.68,29.8,48.63,45.3,40.58,24.85,62.94,132.74,49.57,33.32,85.39,68.06,76.06,26.58,80.03,1544.8,25.75,20.05,18.91,70.84,30.51,56.97,16.76,50.35,70.09,80.31,33.78,59.05,14.07,23.06,21.38,53.13,32.46,18.45,68.66,56.35,59.25,40.77,62.28,34.07,71.66,58.6,85.05,48.78,33.82,56.73,39.28,64.27,182.54,82.65,33.84,72.25,301.95,38.01,84.51,159.1,47.96,59.21,53.19,53.73,188.44,24.19,103.73,77.16,39.2,56.14,93.48,73.07,40.9,19.15,65.22,49.28,79.74,52.76,84.23,64.79,152.54,66.39,23.49,60.98,112.65,125.59,45.41,36.47,56.1,44.64,124.11,86.6,42.62,68.9,33.52,144.83,27.48,54.68,70.9,45.46,41.43,72.67,14.06,76.85,64.42,54.79,20.1,42.19,70.86,53.22,46.54,107.29,39.77,53.58,38.98,52.3,10.44,24.29,66.11,358.3,114.88,79.21,32.12,136.6,157.6,155.51,12.57,109.7,242.0,67.34,27.81,29.01,128.19,79.89,30.82,194.03,56.71,73.12,154.44,134.52,26.24,42.11,34.54,81.49,43.96,17.1,45.5,49.31,43.56,80.04,57.59,1054.0,86.79,289.47,77.55,10.44,136.65,265.4,32.83,92.54,178.22,105.63,137.04,87.42,58.46,29.48,79.1,23.17,24.13,444.0,99.6,73.53,24.56,52.45,67.79,29.6,65.54,116.5,30.97,35.9,49.72,73.3,56.19
2016-02-12,67.44,128.81,39.28,56.52,143.13,49.6,34.97,15.8,43.73,62.95,64.57,33.42,49.54,26.4,33.45,77.6,27.5,31.74,36.03,39.33,84.36,57.97,72.63,44.4,104.96,95.3,14.26,7.24,38.24,32.08,22.68,70.0,114.88,17.69,8.16,90.44,20.55,34.56,63.29,208.31,35.58,64.02,7.22,55.79,151.52,72.98,9.88,34.1,57.37,48.94,55.81,184.56,39.19,79.71,97.89,48.33,35.95,15.55,43.11,10.19,35.8,36.35,53.52,42.77,124.52,45.31,111.2,91.61,68.82,31.06,21.91,50.25,35.24,75.99,24.61,30.61,43.28,43.61,22.8,53.24,5.12,61.3,24.89,717.14,9.01,43.35,102.76,16.7,39.91,277.3,158.34,63.02,62.06,147.98,58.87,61.21,57.63,21.18,39.44,65.94,37.13,136.87,83.12,56.84,40.36,45.23,102.59,35.37,41.73,38.45,14.07,91.14,41.34,28.6,21.38,127.51,237.17,96.94,60.25,96.25,75.65,80.85,55.77,20.41,66.87,38.11,93.35,61.26,56.25,42.56,49.46,113.6,20.62,101.76,56.95,18.81,14.08,66.82,58.05,20.21,47.53,248.78,26.58,88.66,23.71,55.56,92.97,40.0,71.67,183.42,26.2,163.29,35.96,36.01,84.6,61.62,87.23,117.85,62.98,104.82,20.79,26.69,61.75,510.7,83.8,109.07,69.12,75.9,85.09,53.33,22.38,143.75,25.7,21.99,49.57,104.71,35.84,35.84,523.15,79.8,34.0,38.1,58.63,88.45,120.52,35.17,90.92,61.46,67.49,60.01,83.62,712.21,236.57,29.81,78.89,57.1,17.09,43.9,89.03,23.98,36.7,102.68,61.31,105.12,60.2,57.54,61.99,83.8,42.72,64.78,71.81,18.0,77.31,83.74,69.34,53.91,80.08,11.25,129.64,27.57,29.19,88.99,119.26,33.57,74.33,127.15,37.14,84.13,94.67,48.98,70.32,151.51,61.0,71.67,39.04,32.85,90.06,94.95,96.4,29.25,30.3,60.33,32.29,80.36,41.93,51.88,51.75,94.19,31.69,81.27,36.11,136.87,96.93,128.73,23.27,55.65,128.04,41.45,83.5,96.45,68.03,91.52,76.96,45.47,112.12,125.55,56.17,86.93,206.23,9.09,28.57,101.0,101.82,71.57,84.8,31.62,25.32,116.72,11.48,24.8,45.96,67.0,48.83,95.25,68.88,250.88,139.62,62.18,48.0,91.34,51.06,31.32,77.33,57.55,65.52,76.59,22.5,131.8,13.6,8.72,1.89,67.84,93.76,27.25,134.62,45.28,70.91,38.33,72.5,18.1,30.5,49.63,45.34,41.34,25.25,65.71,132.7,49.31,33.41,84.99,67.13,77.5,26.79,80.87,1535.0,26.5,20.4,18.91,73.44,32.18,57.35,17.34,50.67,71.23,81.09,34.59,60.95,14.54,24.78,21.74,55.0,33.0,18.6,68.09,58.88,59.8,42.19,63.17,34.25,70.65,65.54,85.62,50.68,34.59,57.34,42.13,64.97,184.38,84.5,35.12,72.68,301.31,39.61,85.87,161.85,46.86,59.74,55.65,54.49,192.54,24.72,107.51,78.11,41.28,56.34,95.0,73.86,41.53,19.63,69.9,49.48,78.85,53.91,87.4,66.25,156.24,66.08,24.23,63.14,114.38,129.27,45.82,36.92,57.06,45.71,126.76,87.19,43.0,68.81,33.52,147.09,27.23,54.3,72.2,47.08,41.81,73.84,14.25,78.78,64.91,53.88,20.27,43.72,71.47,53.26,47.29,102.43,40.51,54.37,39.81,52.53,10.53,24.9,64.5,371.36,121.87,81.94,33.97,135.07,160.67,155.4,12.5,112.0,254.47,68.95,28.59,30.63,131.83,82.5,30.38,196.94,59.9,73.97,158.92,136.91,26.79,42.88,35.2,81.73,44.32,17.51,48.0,48.75,44.0,82.85,59.75,1066.88,87.64,300.18,79.61,9.7,139.88,279.54,34.11,94.43,183.13,108.56,139.54,86.64,62.75,29.51,81.66,24.68,24.47,466.11,103.74,74.0,25.57,54.02,69.44,28.66,67.2,117.76,30.86,36.66,49.57,74.87,58.09
2016-02-16,67.35,131.94,41.0,58.1,146.89,49.79,37.19,16.15,44.98,64.71,65.92,34.46,50.24,28.34,34.0,79.56,28.9,33.6,38.59,39.34,86.18,59.84,74.05,44.98,108.23,98.97,14.92,7.76,39.65,32.97,24.02,70.8,118.12,18.08,8.6,93.01,20.56,35.3,64.24,207.52,36.66,66.9,7.76,56.46,152.0,73.99,10.36,35.27,57.57,49.64,57.87,182.4,40.23,82.36,98.97,48.63,35.91,16.24,43.62,10.81,36.6,36.68,55.21,43.28,127.72,45.32,112.63,93.86,71.04,32.05,24.07,50.9,35.76,77.13,26.17,31.7,44.62,43.78,23.55,54.72,5.82,62.42,25.27,745.0,9.28,45.6,105.04,16.78,41.52,283.42,161.0,64.47,64.27,149.35,61.38,63.71,58.81,22.08,41.45,68.17,37.86,139.73,84.14,57.81,41.38,46.16,107.72,36.79,42.83,40.22,14.64,90.25,42.27,29.61,21.44,128.54,236.22,98.45,61.19,97.91,76.7,81.93,55.99,21.34,68.5,39.32,94.32,62.74,54.05,43.76,50.24,116.54,22.34,103.58,58.95,19.4,14.48,68.77,59.83,20.09,48.04,249.0,26.66,90.72,24.45,56.79,93.7,41.03,72.03,185.65,26.8,165.85,36.42,36.36,86.11,62.74,89.45,119.47,65.03,108.27,21.6,28.05,62.12,519.48,87.71,110.3,70.16,77.94,87.09,54.13,22.3,149.6,26.1,22.01,51.27,103.35,36.72,38.21,536.0,83.84,34.79,38.64,62.66,91.92,122.37,36.12,92.25,62.55,67.35,60.68,86.12,718.65,238.58,30.46,81.62,58.5,17.8,45.18,89.5,24.78,37.13,104.47,60.92,109.73,62.72,58.69,64.16,85.23,43.32,66.52,70.91,18.59,78.99,83.64,69.49,54.18,81.7,11.75,131.48,28.58,29.65,90.0,121.83,34.55,74.34,129.92,38.64,87.27,96.94,49.4,70.7,155.0,62.47,72.95,38.92,33.09,93.06,94.07,99.2,29.55,30.79,60.26,33.49,81.99,42.08,53.01,53.0,95.02,32.96,83.05,36.88,141.19,97.75,131.78,24.78,58.23,127.82,41.8,85.28,98.46,70.62,92.47,76.2,46.72,112.45,130.44,57.0,88.37,212.2,9.56,28.75,105.68,102.37,71.95,82.84,33.38,26.31,118.42,12.38,24.66,48.05,68.25,50.55,97.62,71.35,259.06,142.48,61.93,48.01,93.17,51.14,32.56,78.0,58.8,66.61,78.2,22.97,134.0,13.88,8.9,1.86,68.9,94.65,28.1,135.0,46.19,70.59,38.98,73.05,18.84,31.05,51.99,45.0,41.8,25.97,66.69,133.82,50.75,33.82,87.34,67.5,80.54,26.6,81.13,1544.44,26.58,20.48,19.41,74.0,32.23,59.35,18.6,51.93,72.48,85.75,35.78,61.13,16.09,24.56,22.46,57.1,33.1,19.15,68.39,60.15,61.88,42.43,63.03,34.81,70.25,70.3,86.34,52.19,35.17,58.2,43.95,66.44,187.56,84.81,34.48,72.33,310.26,40.14,90.1,170.03,47.14,59.61,57.29,54.22,197.04,25.51,110.26,79.71,44.81,57.87,97.64,77.99,42.19,19.69,70.54,50.59,76.65,54.96,89.2,67.9,160.61,65.59,24.58,62.76,119.11,132.61,47.62,38.13,59.27,46.32,129.44,89.0,43.49,72.87,35.11,146.2,28.0,55.06,72.9,48.29,43.46,75.04,15.54,80.3,66.81,53.85,20.48,44.9,74.32,54.33,48.72,101.0,41.61,55.39,41.66,53.44,10.92,25.75,64.06,386.4,123.36,85.42,34.65,139.29,165.06,157.55,12.41,115.24,255.14,69.79,29.63,32.2,134.31,84.46,31.5,197.0,60.33,79.81,160.0,143.1,27.72,44.33,38.12,83.34,46.31,17.88,48.07,48.76,44.76,84.18,62.37,1075.89,89.0,312.03,81.38,9.57,144.35,285.82,34.92,96.24,183.84,109.11,142.04,89.0,70.84,30.18,82.0,22.86,24.71,484.01,103.8,76.76,27.0,55.18,71.41,28.56,68.41,123.27,32.31,37.38,50.05,77.61,58.38
2016-02-17,67.18,132.69,41.57,58.75,148.3,51.12,38.22,16.89,45.34,65.19,66.83,35.04,50.41,29.8,34.92,79.76,29.15,33.86,39.71,39.19,87.04,60.92,76.2,45.9,110.0,100.09,15.75,7.94,40.61,34.28,24.7,71.97,120.45,18.26,8.89,94.0,20.9,35.87,64.9,210.0,36.86,68.0,7.67,56.77,154.04,75.32,10.97,36.13,58.6,51.34,58.95,185.61,40.55,84.14,100.39,50.05,36.1,16.81,43.6,11.04,37.47,36.75,57.17,43.93,128.17,45.55,115.5,94.39,71.6,32.84,24.22,51.49,35.97,79.4,26.99,32.0,45.23,45.28,23.99,54.87,6.63,62.52,26.17,762.0,9.44,47.05,104.87,17.4,42.82,287.0,167.33,64.69,65.74,149.75,63.07,64.96,59.64,23.21,41.63,70.05,38.16,140.49,80.3,57.73,42.2,46.84,109.86,37.69,43.3,40.53,15.57,90.85,43.8,29.41,21.17,128.38,242.96,98.09,62.69,98.81,78.36,82.5,55.7,22.02,69.26,40.13,95.0,63.9,56.08,43.87,51.01,117.7,20.41,104.6,57.85,19.71,14.78,69.0,60.25,19.41,48.44,256.29,26.83,91.09,24.85,56.7,95.82,41.77,72.33,187.97,27.2,166.06,37.37,36.52,86.06,62.86,88.98,120.42,66.08,108.0,22.13,28.41,63.77,528.74,89.56,111.51,71.24,80.0,86.93,55.46,23.08,150.8,27.33,23.35,53.18,107.96,35.22,38.55,535.54,84.17,35.97,39.48,64.88,94.11,125.0,37.06,91.68,61.89,68.04,60.38,86.93,727.0,238.54,31.29,84.03,59.11,18.52,46.11,90.06,24.65,38.37,105.39,61.12,114.03,62.89,61.26,66.0,85.41,43.42,66.12,70.41,18.72,80.47,84.55,69.46,55.41,81.65,11.99,132.24,29.14,30.24,90.59,123.71,35.3,75.1,128.84,38.5,87.79,97.4,50.0,70.78,156.0,63.93,74.35,38.94,33.2,94.31,94.84,99.0,30.0,31.13,60.47,33.3,81.65,42.1,53.5,52.7,96.67,33.74,84.18,37.67,143.31,98.71,134.66,24.37,58.85,128.1,42.0,85.28,99.1,72.2,93.67,76.52,47.05,112.26,133.56,57.99,89.17,216.25,9.88,28.86,107.5,102.75,74.01,81.34,34.4,26.61,119.18,12.57,24.79,48.65,69.34,51.72,101.05,72.55,261.77,143.18,62.41,48.08,93.75,52.96,33.25,78.72,59.7,66.1,77.19,23.85,136.6,15.43,9.09,1.85,69.9,95.09,27.78,138.9,47.1,70.45,39.26,73.8,19.1,31.1,52.35,45.27,42.43,26.94,67.32,134.61,51.7,34.03,86.71,67.09,81.23,27.01,82.22,1554.0,27.01,20.56,19.87,78.68,33.37,60.51,19.27,51.99,73.87,88.98,38.31,62.03,16.47,26.18,22.72,59.5,34.07,19.59,69.7,65.28,62.79,43.04,64.32,36.48,70.75,72.67,88.5,52.94,35.76,59.51,45.21,68.21,185.53,84.51,34.76,74.1,314.0,41.07,91.51,169.69,47.83,62.07,58.75,55.77,207.89,25.91,111.79,80.83,46.1,59.35,99.13,80.95,43.49,20.23,69.52,52.5,80.1,55.43,94.11,68.78,160.51,65.51,25.47,62.34,126.5,134.59,47.98,38.95,61.82,46.16,129.17,89.67,44.98,73.67,37.25,149.44,28.86,56.05,73.0,49.66,44.46,75.87,17.46,81.17,68.12,53.81,21.6,46.59,75.1,55.52,49.42,107.17,43.08,50.1,40.78,54.34,11.02,26.39,66.2,393.73,124.31,86.07,35.98,141.41,168.18,160.41,12.39,116.24,257.91,72.29,30.33,32.88,136.38,86.15,32.07,199.13,60.0,79.38,162.46,143.93,28.7,46.74,41.23,83.49,48.02,18.2,48.22,49.82,45.51,84.17,63.54,1245.0,90.02,318.84,85.17,9.81,148.88,291.3,38.25,97.74,188.85,110.83,147.17,90.13,75.31,31.51,83.15,23.79,25.67,495.43,101.94,79.09,27.84,55.67,71.73,29.76,68.71,127.0,32.86,37.33,51.78,79.0,58.9
2016-02-18,66.94,132.39,44.0,59.24,150.79,53.01,40.77,17.17,46.79,64.1,66.93,34.96,50.12,29.69,34.62,81.13,29.84,34.03,39.93,38.98,86.61,61.53,75.39,45.69,109.73,102.22,15.48,7.9,40.09,34.53,25.53,72.17,120.93,18.38,8.78,95.1,20.89,36.31,65.56,212.25,37.41,68.28,7.6,57.23,155.15,75.53,11.57,37.3,58.17,52.16,59.81,190.7,40.72,84.05,101.12,50.36,36.06,16.65,42.36,10.98,38.65,36.62,56.68,44.4,130.26,45.25,118.5,94.67,71.6,32.92,24.36,52.33,36.71,82.3,27.64,32.06,45.94,46.49,24.5,54.8,7.4,62.48,26.4405,750.0,9.64,48.41,104.31,17.54,43.84,280.58,168.0,64.91,64.1,149.13,64.1,65.48,61.22,22.97,41.9,70.87,38.13,142.17,83.86,57.44,43.22,46.85,108.98,38.67,43.55,40.56,15.04,90.65,46.46,30.77,21.25,127.5,245.5,96.04,62.56,97.82,78.71,82.51,55.43,21.68,70.52,41.6,96.04,65.2,56.03,44.42,52.05,124.86,19.21,105.91,58.37,19.85,14.72,70.99,59.57,20.53,48.82,266.6,26.73,89.6,24.76,57.57,97.79,42.42,72.32,186.52,27.44,167.35,37.43,36.23,87.03,64.45,89.98,121.89,69.18,109.01,22.42,29.42,64.64,541.19,89.36,111.78,70.69,81.56,86.09,57.02,23.12,151.25,29.93,23.74,54.83,110.01,37.73,39.32,540.86,85.65,35.65,39.96,66.64,95.37,127.66,37.66,91.97,63.19,69.13,63.48,86.58,733.96,246.0,33.0,85.0,59.51,18.47,46.44,91.14,25.84,38.34,105.93,61.29,116.91,63.95,61.25,67.15,88.75,43.63,66.9,70.03,19.05,81.41,84.37,69.31,56.16,82.9,12.4,134.62,29.3,31.74,91.41,130.0,35.54,75.84,130.36,39.0,88.49,97.5,50.6,71.55,156.35,65.17,75.67,39.02,32.51,95.2,95.32,99.57,29.82,31.1,60.32,34.48,82.23,41.94,53.5,51.96,98.84,33.4,85.48,38.14,144.5,99.6,135.6,24.82,58.84,129.43,41.72,86.0,97.88,70.95,96.34,75.04,48.03,111.84,132.86,58.11,90.14,217.74,10.13,29.53,106.3,102.83,73.42,81.22,35.84,27.27,118.81,12.71,24.21,48.09,71.33,51.9,102.5,73.73,259.07,143.65,62.48,47.8,92.89,53.64,33.18,79.76,60.81,63.74,77.5,24.18,138.9,15.72,9.23,1.93,72.0,94.75,27.95,139.32,47.92,69.33,39.36,74.35,19.63,31.42,52.63,45.15,43.5,26.9,69.3,135.35,52.3,33.73,88.55,66.34,80.45,29.0,82.72,1587.89,27.47,20.95,20.02,77.77,33.66,60.91,19.38,51.88,74.0,88.18,37.11,63.3,18.1,27.76,23.15,60.14,34.46,19.67,71.52,67.12,62.68,46.05,64.73,37.35,70.5,74.86,89.26,51.34,36.06,59.41,45.51,74.83,185.31,86.4,34.35,74.44,321.41,42.57,91.64,171.52,48.24,63.62,59.54,58.05,209.28,25.98,114.48,79.76,46.44,59.66,103.12,83.16,44.04,20.29,70.2,55.53,83.74,55.43,95.57,70.37,155.33,64.74,25.96,62.54,128.42,132.0,49.22,39.36,64.43,46.02,130.6,90.0,46.4,72.58,38.09,148.34,29.45,57.0,74.08,53.22,43.77,77.09,17.78,82.33,69.56,53.65,22.13,47.38,75.51,54.77,51.07,108.13,43.46,53.0,41.56,55.53,11.02,26.23,67.4,395.65,125.58,87.87,36.41,134.95,169.6,163.08,13.05,116.91,254.27,72.25,31.0,33.79,138.92,85.69,32.85,201.78,59.8,79.73,163.44,148.52,28.86,47.77,41.6,83.76,48.78,19.2,48.5,50.52,45.29,84.72,66.18,1245.0,92.19,319.52,86.72,10.2,154.63,288.02,40.22,99.62,195.05,111.12,142.35,94.8,75.65,31.83,84.66,25.43,25.9,515.0,105.8,81.34,27.78,57.03,71.89,29.88,68.64,131.76,33.51,37.74,52.54,79.5,59.09
2016-02-19,67.54,130.7,41.54,58.98,148.98,51.88,37.9,18.5,47.58,64.3,66.24,34.41,50.74,29.8,34.25,81.04,30.32,33.88,38.82,39.65,86.57,61.47,75.99,45.57,108.3,100.44,15.05,7.59,39.28,34.43,25.75,72.19,119.82,18.43,8.48,95.14,20.82,35.59,65.59,214.51,37.13,67.78,6.85,57.24,155.72,74.95,11.39,37.44,58.5,47.85,58.61,192.16,39.86,81.83,100.18,50.67,36.51,16.48,44.2,10.56,38.91,36.9,55.19,44.36,129.52,45.81,117.5,93.78,70.89,32.05,23.78,51.97,36.52,80.32,27.16,31.76,45.36,45.48,23.96,55.25,6.98,62.38,26.27,746.91,9.64,49.04,104.41,17.18,44.29,278.7,167.8,63.89,64.5,149.0,63.0,65.5,61.53,23.91,41.62,70.83,38.35,140.1,82.61,57.0,42.24,46.66,105.73,37.43,43.54,39.89,15.17,90.82,43.8,28.83,21.73,126.57,246.29,96.8,62.96,97.22,78.21,83.85,56.63,21.06,69.14,41.43,96.07,64.87,55.52,44.18,52.01,119.08,19.25,108.57,55.03,19.8,14.49,68.61,58.34,19.35,47.86,257.36,26.79,88.2,24.55,56.92,96.52,41.95,72.95,187.98,26.75,167.86,37.42,36.28,86.74,64.44,91.06,121.16,68.22,108.56,21.88,28.96,65.92,520.71,87.7,111.04,70.69,80.54,87.41,55.41,23.43,147.0,29.88,24.0,52.9,107.04,36.98,38.96,538.65,85.45,36.02,39.79,64.98,94.94,127.58,36.84,91.43,62.53,68.43,61.75,85.65,715.9,243.37,34.19,83.54,59.17,18.13,46.28,91.58,25.24,38.32,106.14,62.43,117.31,62.92,60.82,64.92,86.33,43.58,67.2,71.0,18.59,76.65,84.95,69.55,55.86,82.19,12.19,134.89,28.94,31.28,90.58,132.36,34.81,75.61,129.69,37.79,87.68,96.4,50.25,73.79,157.0,64.78,74.5,39.72,33.82,94.66,96.66,98.46,29.6,31.32,60.62,33.15,81.96,42.9,54.25,51.9,96.0,33.66,84.82,37.98,143.36,101.36,137.0,24.64,57.5,127.89,41.64,84.73,96.47,72.2,95.23,75.93,48.19,114.5,130.3,58.53,90.18,215.06,10.49,29.2,105.34,103.58,72.69,83.22,35.57,26.95,117.0,12.22,24.92,47.4,69.84,51.07,101.26,71.97,254.46,144.15,63.63,48.63,92.47,52.83,33.61,78.52,57.99,63.89,76.44,23.74,139.29,15.59,9.25,1.93,71.47,94.28,27.2,139.28,47.41,70.29,39.42,74.51,19.51,29.63,52.07,45.69,42.9,26.8,68.52,134.59,51.7,33.68,88.35,67.15,82.01,28.63,81.75,1577.93,27.9,20.73,20.12,79.1,32.95,58.98,18.23,51.9,74.09,85.89,36.33,62.31,18.16,27.72,22.17,61.99,34.43,19.11,70.11,66.27,62.22,43.94,63.54,37.57,69.99,70.84,90.75,54.42,35.6,59.14,42.68,68.45,185.27,85.38,33.92,74.32,314.57,41.5,90.75,170.61,47.04,62.35,57.96,55.69,208.0,25.85,111.66,80.01,45.39,58.96,101.63,80.5,42.08,19.53,69.42,54.22,81.63,55.45,92.83,70.15,153.16,65.43,25.5,61.68,126.7,131.83,49.26,39.16,61.51,45.81,130.35,89.04,46.46,72.2,36.93,147.3,28.88,58.44,72.9,50.78,42.69,76.83,17.61,80.19,69.52,54.42,20.695,47.87,74.62,54.49,51.79,107.42,44.23,51.8,42.07,54.5,10.8,26.5,67.48,386.45,125.81,85.99,36.0,129.16,170.66,162.59,13.51,115.69,252.82,69.28,30.33,32.46,135.57,84.13,31.67,201.96,60.26,78.66,163.37,142.28,29.09,46.32,40.12,84.76,49.22,18.44,47.53,51.43,45.65,85.6,65.07,1238.28,91.7,313.07,86.29,10.28,149.23,287.9,40.56,98.31,197.34,111.37,143.52,89.98,76.37,32.44,84.51,25.59,25.49,512.2,102.55,78.75,26.88,57.16,71.03,28.85,68.27,127.05,30.93,37.29,52.78,79.66,58.5
2016-02-22,68.93,132.87,43.47,59.81,148.72,52.67,38.34,18.7,49.9,65.25,66.71,35.35,51.02,30.04,34.35,81.28,30.12,34.76,39.67,39.47,87.5,61.48,76.98,47.4,109.27,101.83,15.47,7.79,40.1,34.76,26.39,73.31,123.0,18.57,8.76,96.25,21.27,35.34,65.99,214.78,37.33,69.05,6.97,57.54,155.55,75.87,11.37,37.97,59.65,49.32,60.09,190.78,39.85,83.76,101.3,51.56,36.28,16.74,43.79,10.84,39.56,36.74,56.66,44.55,131.0,45.56,119.12,95.36,72.39,32.66,24.4,52.28,37.11,82.09,27.53,32.16,46.49,45.47,24.71,55.76,7.27,63.17,26.87,767.25,9.66,50.08,103.89,17.24,44.47,279.56,166.5,64.5,66.21,149.63,63.55,66.44,61.57,24.87,42.3,71.31,38.76,139.87,84.09,58.23,41.68,47.0,108.44,38.46,43.98,40.37,15.21,92.24,46.35,30.77,21.82,128.67,253.33,98.5,63.09,98.28,78.29,85.66,56.83,21.65,69.72,42.56,96.92,65.01,56.71,45.05,52.49,126.0,19.2,109.31,57.26,20.1,14.82,71.54,60.07,20.44,48.82,265.26,27.15,88.35,25.21,58.63,98.18,42.68,73.68,190.69,26.79,170.93,37.84,36.42,86.86,64.23,91.97,122.59,70.48,109.42,22.89,30.02,66.83,542.2,89.49,113.86,71.42,81.85,88.02,56.71,23.95,149.2,30.88,24.67,53.63,106.59,37.88,39.65,549.0,86.47,36.04,40.0,66.19,95.64,128.0,37.74,94.0,64.17,70.99,63.0,87.93,729.51,251.06,33.34,84.3,59.91,18.24,46.49,92.34,25.9,39.0,108.0,62.01,116.55,63.9,61.65,66.41,87.87,43.76,67.78,71.0,18.77,77.3,85.02,69.78,56.68,83.21,12.24,136.32,29.25,32.03,91.75,133.84,34.43,75.18,131.8,38.1,89.16,98.04,50.28,73.45,157.5,66.46,75.66,39.48,33.15,96.87,97.73,99.98,29.75,31.49,61.02,33.69,82.07,43.12,55.21,52.05,96.31,32.89,85.99,38.17,145.63,102.4,135.34,25.44,58.51,128.97,42.0,85.69,97.95,72.51,96.23,74.8,48.5,115.1,130.95,58.96,92.78,218.57,10.44,29.11,106.27,104.44,72.91,83.94,36.72,27.86,117.33,12.38,24.08,48.83,71.9,51.55,102.9,73.82,257.68,146.73,63.24,48.61,93.15,53.29,33.7,81.78,59.0,64.96,78.4,23.19,145.11,15.95,9.44,1.94,73.1,94.36,27.82,141.83,47.57,70.19,39.68,75.81,20.16,31.22,52.42,45.77,44.25,27.38,69.25,136.08,52.42,34.4,89.19,67.35,83.68,28.94,83.49,1608.9,28.77,21.08,20.46,81.89,33.32,61.25,18.89,52.32,75.5,87.4,35.56,64.0,18.62,28.15,24.06,66.0,34.73,19.57,71.84,68.1,63.9,44.93,64.14,38.52,70.93,73.57,91.9,54.84,36.24,59.47,44.47,67.81,187.62,88.2,34.91,75.73,325.69,42.98,90.97,174.5,45.86,63.77,59.64,56.52,210.56,26.52,114.59,82.05,46.97,59.76,103.48,81.14,42.42,20.18,74.13,55.1,82.49,56.18,93.53,72.51,151.0,66.21,26.21,63.25,129.21,132.12,49.99,40.14,63.6,46.41,132.19,90.15,47.2,72.34,36.31,148.1,29.18,59.53,74.39,53.06,43.13,77.79,17.92,83.5,70.19,54.83,21.15,48.8,75.45,55.32,54.13,108.06,44.73,51.7,42.12,54.67,11.04,27.94,68.09,399.05,128.59,89.41,36.45,127.62,171.36,166.25,13.75,116.83,259.26,70.79,31.7,32.96,137.32,85.32,32.97,208.55,60.56,80.49,167.54,147.79,29.26,46.01,42.79,88.19,49.68,18.87,48.63,52.72,45.86,86.12,66.11,1286.56,93.22,318.84,86.91,10.15,153.02,302.17,40.5,100.158,205.57,111.36,145.25,90.75,79.18,31.98,86.52,24.69,25.72,515.0,105.49,81.05,27.01,57.92,72.3,30.51,68.49,130.0,31.79,37.46,53.01,79.69,59.45
2016-02-23,69.17,132.05,43.66,59.64,148.15,52.46,38.89,18.48,49.92,64.72,65.98,35.29,50.97,30.97,33.79,81.21,29.7,35.36,39.12,39.58,87.33,61.35,77.04,47.54,103.62,103.26,15.6,7.86,39.95,34.98,27.02,74.1,127.0,18.47,8.87,96.19,21.2,35.69,65.76,214.83,37.27,71.46,7.3,57.34,156.0,76.24,11.0,37.82,60.26,51.4,60.54,192.03,39.37,83.94,102.25,51.52,36.0,17.15,44.61,10.9,40.7,36.81,56.76,42.85,131.03,45.94,120.64,95.24,73.03,32.77,24.45,52.34,37.11,83.41,27.87,32.03,47.75,46.77,24.45,56.18,7.55,62.81,26.54,766.55,9.71,51.0,103.53,17.11,45.35,285.99,171.68,64.31,66.51,149.89,64.04,67.61,62.37,24.76,42.29,71.46,38.93,140.0,84.56,57.78,43.02,43.94,108.98,38.43,44.57,40.68,15.23,91.46,46.7,31.22,21.88,123.5,253.68,98.51,64.02,97.11,78.31,86.81,56.86,22.06,70.03,42.64,97.8,65.27,56.42,44.95,52.44,123.51,20.08,110.05,59.4,20.01,14.83,71.69,63.0,20.33,48.57,264.81,26.96,89.1,25.93,58.45,97.54,42.79,74.86,189.36,27.1,170.57,37.48,36.27,87.69,64.59,91.48,121.92,69.3,108.64,22.72,29.35,66.65,555.55,90.89,114.18,69.37,83.2,88.87,56.52,24.04,148.0,31.27,24.71,54.07,106.6,37.64,39.07,547.15,87.53,36.23,39.56,65.85,94.79,131.9,37.29,92.04,64.47,70.27,63.72,87.26,726.1,247.32,33.05,84.22,59.66,18.13,47.0,92.42,25.58,38.91,104.31,62.47,116.97,63.28,60.78,67.11,88.39,43.74,67.39,71.58,18.38,78.23,84.97,70.39,57.4,81.99,12.53,135.94,29.21,32.44,89.73,133.14,34.18,73.55,131.29,38.12,88.5,97.37,50.56,73.88,157.63,70.04,76.12,39.54,33.32,96.54,98.08,99.89,30.06,31.09,61.22,33.92,82.0,43.62,55.52,52.01,96.4,33.77,86.12,38.15,145.98,102.7,135.69,24.86,57.9,128.4,41.77,86.43,98.48,72.83,96.5,74.65,49.21,115.33,134.42,58.29,92.31,220.7,10.61,29.3,104.36,104.65,73.1,83.91,36.47,27.77,117.35,12.47,25.62,48.87,71.37,51.87,104.36,73.88,258.19,146.12,63.96,48.97,94.08,53.03,33.87,80.5,61.35,65.84,78.47,23.57,148.0,16.05,9.53,2.04,72.31,93.21,27.75,141.58,47.6,70.36,39.78,76.0,19.85,31.25,53.65,45.81,44.14,27.23,69.8,131.7,52.39,34.21,92.23,67.19,84.13,28.86,82.71,1577.76,28.87,21.13,20.7,82.52,33.26,61.07,18.65,52.03,75.55,87.32,35.8,62.37,18.56,29.16,24.5,65.9,34.35,19.73,71.17,68.07,64.05,44.69,63.96,38.83,70.4,73.47,92.42,54.47,36.22,58.58,46.35,68.14,185.8,88.42,35.22,75.92,322.96,45.6,92.32,176.02,45.53,63.42,61.05,57.67,209.22,25.94,111.0,81.5,47.07,60.76,103.42,81.07,42.69,20.56,73.7,54.24,81.95,56.0,93.93,72.83,156.63,66.11,26.56,62.65,129.18,133.84,50.21,40.56,63.74,46.09,131.12,89.93,48.47,73.39,37.47,147.48,29.41,60.15,73.1,53.48,43.04,77.27,17.8,81.74,69.72,55.02,21.32,48.85,76.75,55.11,55.09,109.77,43.31,51.16,42.58,55.7,11.02,27.71,69.7,392.0,129.06,88.06,35.72,123.96,172.4,165.79,13.72,116.63,258.76,74.38,30.95,32.73,138.75,86.25,32.17,208.14,59.78,81.62,165.88,144.22,29.37,45.82,41.73,89.33,51.07,19.0,49.24,52.99,46.03,86.28,65.6,1278.3,93.62,315.0,86.5,10.45,151.54,298.85,40.65,100.34,209.0,112.37,148.44,91.4,79.71,32.04,85.48,25.06,26.2,514.0,106.85,80.4,26.85,57.84,72.95,31.35,68.07,130.16,33.12,37.51,54.56,80.09,60.8
2016-02-24,69.9,128.79,40.65,58.73,145.5,50.6,36.95,18.28,49.25,63.48,65.43,34.29,50.27,30.27,33.39,80.34,29.08,33.2,37.44,39.94,86.84,59.34,75.92,46.75,99.41,102.45,14.85,7.4,38.27,34.19,26.9,73.78,124.05,18.41,8.45,93.62,21.13,35.03,65.12,213.58,36.04,66.09,6.75,56.7,153.29,75.05,10.25,37.5,59.74,50.52,58.59,190.76,38.26,81.55,99.35,51.0,36.0,16.94,43.72,10.47,40.56,36.7,54.16,42.77,128.38,46.53,119.93,93.67,73.18,31.62,23.16,50.69,36.09,82.22,27.37,31.68,46.98,46.26,23.65,56.04,6.74,62.43,25.89,760.63,9.5,50.0,100.92,17.14,44.79,285.48,172.82,63.35,65.64,150.03,62.11,64.77,62.42,24.14,41.23,70.71,38.62,138.72,83.33,57.06,41.5,44.7,104.39,37.68,43.82,40.68,14.86,92.47,45.7,28.86,21.7,123.58,252.46,98.34,64.5,96.19,77.03,86.23,57.23,20.68,67.34,41.78,96.51,64.0,56.3,44.16,51.8,117.67,18.46,108.3,56.91,19.41,14.46,67.23,60.92,18.92,47.35,256.35,26.78,87.41,25.99,57.21,96.35,41.55,73.5,188.96,25.95,169.87,37.66,36.12,86.52,63.7,90.55,120.25,67.78,107.3,22.16,27.94,65.6,545.75,88.61,113.72,69.2,81.66,87.57,55.18,23.43,143.08,31.47,24.17,53.59,103.16,36.65,37.75,544.01,85.9,36.75,39.96,63.63,93.47,130.94,36.54,91.48,62.25,69.54,62.0,85.14,710.61,240.0,31.84,82.15,58.51,17.78,46.09,91.85,25.46,38.18,102.33,62.78,115.37,61.84,60.29,64.7,83.33,43.564,66.94,71.77,18.12,76.69,85.69,70.92,55.81,79.91,12.11,135.0,28.9,31.35,89.64,131.55,33.99,73.92,130.53,38.44,86.12,96.29,50.16,73.42,154.84,70.89,72.53,39.86,33.0,93.61,98.32,99.0,29.81,31.2,61.2,32.1,81.26,43.5,54.45,50.42,93.98,33.55,83.92,37.93,145.0,102.18,137.49,24.01,55.2,127.73,41.64,85.14,96.08,74.39,94.65,74.99,47.8,114.66,132.52,58.53,90.51,214.5,10.28,28.52,102.64,103.34,73.33,83.7,35.02,28.07,116.32,11.96,25.93,47.34,67.71,50.87,101.39,70.89,252.77,143.47,66.75,48.83,92.67,51.83,33.36,78.02,60.79,66.19,78.05,24.0,148.22,15.29,9.4,1.98,72.32,93.08,27.1,140.35,46.4,70.45,39.19,74.94,19.7,30.67,52.71,46.12,42.82,26.74,68.05,130.84,49.34,34.04,91.11,68.55,83.18,28.7,81.65,1574.9,28.48,20.43,20.41,80.54,32.51,58.82,17.98,51.34,74.11,82.41,36.16,61.16,18.0,29.08,25.0,66.35,34.16,19.0,71.09,68.1,62.79,43.63,62.39,38.43,69.93,71.29,91.4,51.97,36.13,57.3,45.59,66.91,185.29,85.81,34.56,75.72,313.72,46.69,91.59,172.83,45.38,62.24,59.98,56.4,209.3,25.78,113.92,80.59,46.4,58.13,100.89,79.85,42.15,20.15,71.06,52.02,81.3,55.91,90.25,72.16,156.52,66.76,26.21,63.06,124.9,131.6,50.4,40.02,61.58,44.94,129.9,90.3,48.45,73.88,36.04,146.4,28.72,60.38,72.33,49.94,43.5,75.7,16.96,80.33,68.76,55.54,20.7,47.23,76.87,55.25,54.82,108.58,42.57,50.17,41.94,54.66,10.49,27.17,69.35,383.69,128.05,84.12,35.22,123.78,170.01,164.3,13.0,114.58,256.33,73.03,30.97,31.75,136.61,83.92,32.01,208.04,59.53,81.44,165.37,140.66,29.11,44.71,40.98,88.0,49.14,18.5,48.38,53.32,45.63,85.91,63.48,1248.1,92.83,304.49,86.34,10.18,148.39,290.59,40.78,98.65,205.42,110.77,147.34,88.5,78.44,30.37,85.6,24.08,24.92,519.77,104.21,77.52,26.42,56.31,71.25,30.44,67.1,126.51,31.15,37.0,54.2,76.0,60.45
2016-02-25,70.55,132.1,41.66,59.72,147.36,53.06,37.93,18.76,49.49,65.16,66.67,34.78,50.9,32.2,33.63,82.23,30.15,33.92,38.23,40.39,87.2,59.77,77.08,47.28,102.59,103.8,15.15,7.43,38.62,34.77,27.18,75.68,125.76,18.9,8.59,94.64,21.49,35.77,66.3,217.0,36.19,68.62,7.25,57.59,155.94,76.68,10.67,37.53,60.68,51.9,58.77,190.05,38.94,82.57,101.69,51.7,36.07,17.12,45.6,10.58,41.6,37.1,54.28,43.11,130.0,47.66,120.2,97.3,73.95,32.1,23.8,51.73,36.79,84.76,27.8,31.98,48.04,47.95,23.74,56.25,7.14,63.27,26.49,780.0,10.03,51.5,102.21,17.48,47.01,285.42,171.79,63.92,67.56,154.69,63.86,65.76,63.37,24.97,42.12,71.81,39.38,139.66,84.56,58.16,42.12,45.76,105.16,38.69,44.91,41.11,15.14,92.94,46.98,29.71,21.86,128.5,251.25,99.5,65.57,97.16,77.91,86.62,57.68,20.79,69.19,42.16,98.72,64.94,59.14,44.66,52.43,119.45,19.45,110.48,60.88,19.38,14.64,69.19,63.55,19.71,47.73,261.9,26.79,90.0,26.5,58.46,99.1,43.87,73.87,190.67,26.23,171.0,38.46,36.25,87.55,64.46,92.22,121.09,69.42,108.79,22.59,28.35,66.48,555.52,90.2,114.56,70.26,83.48,89.27,56.56,24.03,146.0,31.94,24.91,54.92,105.0,37.62,38.61,555.0,86.72,37.96,40.85,64.95,95.03,130.63,37.21,92.97,63.88,70.16,70.5,86.55,722.93,244.35,32.13,83.74,59.33,18.21,46.75,91.53,25.41,39.22,103.62,63.17,116.35,62.63,61.45,65.89,85.67,43.96,66.61,71.67,17.99,79.21,86.33,71.34,56.75,81.56,12.11,135.52,28.8,32.43,90.66,133.29,34.78,74.14,132.5,38.88,88.8,97.36,50.56,73.64,157.54,72.99,74.23,39.95,32.93,96.11,98.89,99.83,30.1,31.74,61.5,33.07,81.7,43.5,54.78,50.8,96.05,34.04,86.11,39.07,147.74,102.76,137.68,24.42,56.13,130.5,42.1,85.8,96.49,77.0,95.92,75.16,48.38,116.37,134.41,59.04,91.6,217.53,10.16,29.32,106.25,104.95,74.27,81.15,35.33,28.7,117.43,12.14,25.31,47.71,69.55,51.53,102.45,71.93,260.36,145.75,67.83,48.93,94.05,52.81,34.03,79.5,63.42,67.45,79.48,25.13,151.92,15.75,9.58,2.02,73.68,94.91,27.82,142.19,47.34,71.42,39.69,75.93,19.93,33.27,55.56,46.05,42.97,27.5,70.03,133.98,50.77,33.95,93.91,69.25,83.99,29.08,81.31,1585.0,28.88,21.3,20.44,81.2,33.52,60.03,18.3,51.78,75.02,84.27,37.0,62.49,17.93,30.53,25.74,67.72,34.77,19.02,71.73,69.37,63.6,44.22,63.52,38.88,70.75,74.0,91.75,53.6,37.22,58.0,46.57,67.46,187.87,88.38,35.49,76.7,317.21,48.22,96.36,177.86,47.32,63.5,62.21,57.85,215.11,27.45,116.8,81.4,46.9,59.58,101.76,82.41,42.77,21.0,71.14,53.11,82.52,55.86,88.5,71.42,161.52,67.6,27.5,63.92,128.27,132.86,51.31,40.76,63.53,45.59,131.62,91.79,49.08,75.57,37.04,147.72,28.83,61.85,73.41,51.53,43.89,75.98,17.46,81.41,70.52,56.45,21.32,47.86,77.05,56.55,56.44,111.27,43.68,51.87,42.37,55.17,10.81,27.7,70.43,396.36,132.01,87.33,36.67,126.66,171.22,170.43,13.45,116.73,264.77,72.91,31.23,32.57,142.71,85.92,32.56,208.65,59.76,82.0,168.56,142.09,29.32,45.22,42.31,89.2,49.52,19.4,49.52,54.05,46.12,86.95,63.81,1263.25,94.37,309.59,88.08,10.86,150.03,296.23,40.55,99.96,211.34,111.6,150.8,91.08,78.92,31.01,82.83,24.97,25.38,514.21,107.11,79.25,27.34,56.97,71.96,31.98,72.36,130.78,33.88,37.57,55.22,77.46,62.72
2016-02-26,70.71,133.66,42.69,60.58,148.51,53.3,39.09,19.0,50.93,66.61,67.19,35.59,51.15,32.12,33.84,83.0,30.49,34.72,39.06,40.31,88.55,61.26,78.0,47.73,104.45,106.73,15.47,7.64,39.49,36.13,27.1,76.5,127.59,18.75,8.71,95.5,21.59,36.62,67.62,219.22,36.6,69.4,7.75,58.0,156.0,77.74,10.79,37.93,62.64,52.72,60.0,193.0,39.92,83.83,102.37,52.49,36.17,17.44,46.49,10.79,42.75,37.49,55.35,43.55,130.94,47.84,121.48,99.27,75.01,32.83,25.0,52.6,37.43,87.11,29.28,32.35,48.66,48.03,24.43,56.48,7.7,64.14,26.8,785.72,10.01,52.0,103.3,17.35,47.07,298.99,176.81,64.53,68.97,153.09,64.98,66.73,63.69,24.88,43.06,71.55,39.62,143.91,85.0,58.78,42.19,46.0,105.5,38.86,45.01,42.4,15.54,94.09,47.07,31.05,21.92,129.82,254.76,102.08,66.01,97.97,79.26,86.46,57.81,21.55,70.51,43.56,99.59,65.92,61.21,45.24,52.87,123.54,20.37,110.84,61.33,19.84,14.92,68.0,64.81,20.13,48.51,264.06,27.15,90.61,27.28,59.0,100.91,44.04,74.49,192.03,27.17,172.67,39.07,36.65,87.85,65.67,92.92,122.1,71.98,109.6,23.53,28.37,66.83,560.12,91.97,114.91,70.36,84.79,88.8,57.52,24.39,149.72,32.04,24.91,55.35,105.88,37.75,39.82,560.0,88.35,38.91,41.79,66.83,96.9,132.55,37.68,93.64,64.73,72.62,69.68,88.11,733.6,245.27,33.53,85.42,60.18,18.48,47.56,92.54,25.86,39.48,104.09,63.28,117.75,63.35,62.62,67.39,86.97,44.04,67.2,71.85,18.23,79.87,86.46,71.6,57.54,82.89,12.52,137.61,29.3,33.14,92.0,134.51,35.0,74.58,133.31,39.55,90.0,98.58,51.05,73.83,159.15,74.3,73.95,39.97,33.94,97.73,98.07,100.49,30.78,31.86,62.53,33.86,82.52,43.62,55.71,51.88,97.2,34.72,86.54,39.83,149.0,102.01,140.18,24.5,57.64,130.59,42.8,86.61,98.67,78.9,95.71,76.07,48.98,115.3,136.66,60.05,92.2,218.98,10.44,29.88,105.5,106.82,75.42,85.52,36.76,29.03,117.98,12.49,25.11,48.13,71.23,52.32,104.79,73.12,266.88,145.31,68.63,49.34,95.5,53.49,34.69,80.09,64.71,68.08,80.0,25.47,152.12,16.35,9.66,2.04,75.0,95.68,28.07,145.46,48.46,71.32,40.17,76.53,21.25,34.13,56.75,44.32,44.64,27.79,71.55,144.22,51.91,34.51,100.21,69.71,84.75,29.52,83.21,1611.0,29.67,21.67,20.81,82.33,34.1,62.66,18.69,52.27,75.56,86.84,37.36,62.9,17.72,30.6,25.9,67.5,35.36,19.3,73.51,59.66,64.03,44.76,65.19,39.37,71.48,75.0,92.28,55.94,38.27,57.67,47.28,68.2,189.73,84.42,35.83,78.34,318.94,49.29,94.1,183.96,47.89,64.2,62.54,58.0,215.05,28.02,120.25,81.61,47.9,60.22,104.43,83.2,43.5,20.65,72.58,54.58,83.16,56.78,93.0,73.06,165.57,67.66,28.5,63.27,128.36,135.07,51.15,41.5,65.08,46.61,132.82,92.3,49.35,76.14,37.75,150.61,29.73,62.62,78.8,53.15,44.0,77.5,18.12,83.6,72.86,56.42,21.98,48.22,80.94,56.77,56.89,107.9,44.32,51.82,42.99,56.26,10.95,27.96,70.2,396.92,127.75,86.44,36.73,129.9,171.94,175.04,13.78,119.24,268.87,74.72,31.21,32.89,144.17,85.95,32.54,210.96,59.86,82.25,170.01,141.4,29.85,46.6,43.08,89.98,51.0,20.0,49.69,55.08,46.5,85.29,67.57,1268.75,96.3,316.6,89.65,10.965,153.04,306.49,40.49,101.48,213.05,113.34,150.6,95.3,81.39,31.32,84.65,25.73,25.07,507.0,108.7,79.52,28.34,57.59,73.74,32.38,74.12,134.2,34.71,37.73,56.52,80.64,64.0
2016-02-29,68.41,133.43,43.05,60.18,146.96,53.46,39.49,18.98,50.98,66.04,66.89,35.94,50.86,32.5,33.68,82.75,30.17,34.54,39.43,39.41,88.86,61.27,77.72,47.84,105.94,106.03,15.6,7.71,39.25,36.05,27.31,76.44,126.26,18.5,8.87,95.13,21.38,37.02,67.88,216.67,36.54,68.84,8.49,57.5,156.56,77.46,10.65,38.52,62.46,52.32,60.06,191.99,39.31,83.7,102.46,51.64,34.82,17.36,46.29,10.71,41.93,37.12,55.49,43.35,130.24,46.4,121.1,98.98,75.49,33.21,25.01,51.35,37.0,86.01,28.84,32.03,48.33,48.3,25.35,56.11,7.69,63.65,26.42,784.5,9.85,51.17,103.37,17.17,46.41,296.25,179.04,64.12,68.33,149.99,65.15,66.93,63.47,25.04,42.68,71.31,39.51,141.69,84.84,58.14,42.24,46.08,106.34,38.84,45.29,42.2,15.42,93.38,47.0,29.8,21.52,127.39,254.0,101.04,65.0,97.44,78.8,86.29,56.43,21.72,69.76,43.33,97.67,65.69,60.33,45.25,52.91,123.87,20.42,110.79,60.23,19.38,14.89,67.42,63.97,20.35,48.26,262.68,26.69,87.87,27.1,58.25,95.37,44.68,74.66,190.79,26.96,171.42,38.54,36.4,87.27,66.29,91.62,121.84,71.31,108.46,24.09,29.1,67.21,554.0,90.85,114.09,70.11,85.4,90.16,57.13,24.12,149.75,31.61,24.59,55.29,104.19,37.59,40.04,566.47,88.18,38.7,40.54,66.65,97.5,131.86,38.4,92.45,63.96,72.51,69.13,87.3,721.0,238.93,35.08,86.08,59.43,18.39,47.17,91.0,26.18,39.34,102.59,61.47,118.12,62.26,62.0,67.14,84.94,43.17,66.44,70.19,18.36,79.59,84.2,70.01,57.43,81.88,12.42,136.9,29.44,32.39,90.49,132.0,35.2,73.24,131.2,39.7,89.13,97.33,50.52,71.83,158.01,75.0,74.69,39.21,32.82,97.97,95.4,98.36,30.09,31.73,61.51,34.57,81.1,42.55,55.3,51.1,96.86,34.79,85.41,39.48,149.29,99.46,140.45,24.26,57.41,127.65,42.01,85.15,97.8,78.27,95.31,73.96,49.4,112.37,137.28,58.93,91.22,218.07,10.64,29.72,104.15,105.28,73.37,84.4,37.38,28.81,116.8,12.7,25.71,48.03,70.31,51.92,104.87,72.35,272.4,146.67,67.2,48.28,95.15,53.4,34.65,79.81,64.77,66.63,79.35,25.58,154.51,15.75,9.63,2.06,74.09,95.44,28.44,144.48,48.63,70.05,39.96,77.46,20.7,32.99,56.59,43.06,44.85,27.74,72.07,145.04,52.05,34.42,97.43,67.94,83.17,28.67,82.59,1627.0,29.93,21.54,20.76,80.4,34.01,63.41,18.87,52.16,75.73,90.67,37.48,63.26,17.96,31.72,25.93,69.01,35.0,19.66,73.31,59.57,64.71,45.16,64.59,38.87,70.71,74.76,91.91,56.6,38.46,57.86,46.93,69.08,186.12,84.22,35.82,78.75,317.06,49.33,94.0,180.55,48.42,65.32,61.38,57.75,216.75,28.88,119.33,79.09,47.91,61.19,104.36,84.2,42.82,21.8,72.7,55.25,83.54,56.45,92.21,72.4,165.0,64.71,28.3,62.9,128.3,133.74,51.21,40.77,65.88,46.86,133.36,91.4,47.75,75.64,37.99,148.67,29.37,63.48,77.28,53.19,42.84,78.06,17.98,83.72,73.39,54.28,23.11,48.73,79.83,56.1,56.38,112.88,43.07,51.93,42.1,55.87,10.91,27.85,70.28,396.24,130.46,86.83,37.47,128.71,170.02,178.74,13.31,117.0,262.06,74.1,31.05,33.07,142.72,84.7,32.54,210.14,58.51,81.42,167.78,138.91,29.6,47.17,43.5,89.44,51.58,20.19,49.52,55.47,46.17,85.83,66.71,1250.3,96.98,312.6,87.61,10.35,154.52,305.31,40.39,100.68,213.37,113.04,150.0,94.81,82.17,31.64,83.17,26.6,25.04,508.0,107.6,79.4,28.14,57.47,72.86,31.73,74.02,133.34,34.33,37.77,56.75,80.52,63.92
